Time (s),Signal (V)
0,2.098206471
0.002,1.8371068
0.004,1.559688401
0.006,1.731035059
0.008,1.8371068
0.01,1.845266165
0.012,2.032931553
0.014,2.008453459
0.016,2.261393765
0.018,2.187959483
0.02,2.065569012
0.022,1.845266165
0.024,1.535210306
0.026,1.755513153
0.028,1.804469342
0.03,1.959497271
0.032,2.057409647
0.034,2.073728377
0.036,2.26955313
0.038,2.220596942
0.04,2.073728377
0.042,1.8371068
0.044,1.543369671
0.046,1.8371068
0.048,1.869744259
0.05,2.008453459
0.052,2.041090918
0.054,2.098206471
0.056,2.342987412
0.058,2.277712495
0.06,2.090047106
0.062,1.763672518
0.064,1.510732212
0.066,1.755513153
0.068,1.869744259
0.07,1.8371068
0.072,2.139003295
0.074,2.090047106
0.076,2.342987412
0.078,2.277712495
0.08,2.000294095
0.082,1.706556965
0.084,1.584166495
0.086,1.869744259
0.088,1.796309977
0.09,1.918700448
0.092,2.024772189
0.094,2.081887742
0.096,2.326668683
0.098,2.187959483
0.1,2.073728377
0.102,1.665760142
0.104,1.494413483
0.106,1.85342553
0.108,1.85342553
0.11,1.894222353
0.112,2.016612824
0.114,2.073728377
0.116,2.351146777
0.118,2.220596942
0.12,2.032931553
0.122,1.71471633
0.124,1.57600713
0.126,1.845266165
0.128,1.869744259
0.13,1.894222353
0.132,2.016612824
0.134,2.024772189
0.136,2.196118847
0.138,2.220596942
0.14,2.081887742
0.142,1.739194424
0.144,1.690238236
0.146,1.731035059
0.148,1.788150612
0.15,1.886062989
0.152,1.99213473
0.154,2.147162659
0.156,2.359306142
0.158,2.13084393
0.16,1.959497271
0.162,1.608644589
0.164,1.673919506
0.166,1.722875695
0.168,1.861584895
0.17,2.016612824
0.172,2.024772189
0.174,2.073728377
0.176,2.285871859
0.178,2.179800118
0.18,2.049250283
0.182,1.551529036
0.184,1.673919506
0.186,1.690238236
0.188,1.828947436
0.19,1.886062989
0.192,2.032931553
0.194,2.098206471
0.196,2.359306142
0.198,2.171640753
0.2,2.016612824
0.202,1.608644589
0.204,1.747353789
0.206,1.869744259
0.208,1.877903624
0.21,1.910541083
0.212,2.049250283
0.214,2.196118847
0.216,2.294031224
0.218,2.081887742
0.22,1.861584895
0.222,1.551529036
0.224,1.861584895
0.226,1.894222353
0.228,1.828947436
0.23,2.106365836
0.232,2.081887742
0.234,2.204278212
0.236,2.245075036
0.238,2.163481389
0.24,2.016612824
0.242,1.616803953
0.244,1.796309977
0.246,1.894222353
0.248,1.967656636
0.25,2.098206471
0.252,2.049250283
0.254,2.318509318
0.256,2.367465506
0.258,2.155322024
0.26,1.886062989
0.262,1.600485224
0.264,1.828947436
0.266,1.828947436
0.268,1.845266165
0.27,2.032931553
0.272,2.163481389
0.274,2.310349953
0.276,2.2532344
0.278,2.122684565
0.28,1.894222353
0.282,1.527050942
0.284,1.845266165
0.286,1.926859812
0.288,1.983975365
0.29,2.098206471
0.292,2.122684565
0.294,2.367465506
0.296,2.318509318
0.298,2.13084393
0.3,1.877903624
0.302,1.559688401
0.304,1.845266165
0.306,1.845266165
0.308,2.032931553
0.31,2.090047106
0.312,2.236915671
0.314,2.465377883
0.316,2.351146777
0.318,2.106365836
0.32,1.935019177
0.322,1.722875695
0.324,2.032931553
0.326,2.008453459
0.328,2.032931553
0.33,2.147162659
0.332,2.236915671
0.334,2.416421694
0.336,2.359306142
0.338,2.179800118
0.34,1.894222353
0.342,1.641282048
0.344,1.983975365
0.346,2.13084393
0.348,2.106365836
0.35,2.155322024
0.352,2.302190589
0.354,2.604087083
0.356,2.465377883
0.358,2.220596942
0.36,1.99213473
0.362,1.763672518
0.364,2.081887742
0.366,2.073728377
0.368,2.147162659
0.37,2.351146777
0.372,2.310349953
0.374,2.538812165
0.376,2.400102965
0.378,2.228756306
0.38,1.951337906
0.382,1.722875695
0.384,2.057409647
0.386,2.065569012
0.388,2.081887742
0.39,2.187959483
0.392,2.26955313
0.394,2.595927718
0.396,2.367465506
0.398,2.171640753
0.4,1.804469342
0.402,1.763672518
0.404,1.918700448
0.406,1.828947436
0.408,2.049250283
0.41,2.196118847
0.412,2.139003295
0.414,2.40826233
0.416,2.220596942
0.418,2.081887742
0.42,1.788150612
0.422,1.763672518
0.424,1.85342553
0.426,1.8371068
0.428,1.869744259
0.43,2.098206471
0.432,2.13084393
0.434,2.318509318
0.436,2.26955313
0.438,2.13084393
0.44,1.71471633
0.442,1.739194424
0.444,1.828947436
0.446,1.951337906
0.448,2.016612824
0.45,2.073728377
0.452,2.1145252
0.454,2.351146777
0.456,2.073728377
0.458,1.877903624
0.46,1.502572848
0.462,1.592325859
0.464,1.690238236
0.466,1.71471633
0.468,1.722875695
0.47,1.926859812
0.472,2.106365836
0.474,2.302190589
0.476,2.236915671
0.478,2.285871859
0.48,2.122684565
0.482,2.473537247
0.484,2.881505483
0.486,3.109967694
0.488,3.452661012
0.49,3.697441953
0.492,3.893266706
0.494,4.040135271
0.496,3.770876235
0.498,3.615848306
0.5,3.093648965
0.502,3.069170871
0.504,2.914142941
0.506,2.734636918
0.508,2.644883906
0.51,2.587768353
0.512,2.481696612
0.514,2.432740424
0.516,2.179800118
0.518,1.926859812
0.52,1.551529036
0.522,1.682078871
0.524,1.682078871
0.526,1.665760142
0.528,1.779991248
0.53,1.877903624
0.532,2.065569012
0.534,2.155322024
0.536,1.983975365
0.538,1.747353789
0.54,1.469935389
0.542,1.739194424
0.544,1.845266165
0.546,1.943178542
0.548,2.000294095
0.55,2.057409647
0.552,2.228756306
0.554,2.277712495
0.556,2.1145252
0.558,1.861584895
0.56,1.535210306
0.562,1.828947436
0.564,1.845266165
0.566,1.812628706
0.568,2.081887742
0.57,2.147162659
0.572,2.171640753
0.574,2.285871859
0.576,2.049250283
0.578,1.820788071
0.58,1.535210306
0.582,1.796309977
0.584,1.910541083
0.586,1.894222353
0.588,2.008453459
0.59,2.090047106
0.592,2.326668683
0.594,2.26955313
0.596,2.090047106
0.598,1.861584895
0.6,1.57600713
0.602,1.85342553
0.604,1.910541083
0.606,1.967656636
0.608,2.147162659
0.61,2.098206471
0.612,2.26955313
0.614,2.2532344
0.616,2.155322024
0.618,1.845266165
0.62,1.673919506
0.622,1.918700448
0.624,1.910541083
0.626,1.975816
0.628,2.139003295
0.63,2.212437577
0.632,2.465377883
0.634,2.326668683
0.636,2.139003295
0.638,1.886062989
0.64,1.649441412
0.642,1.975816
0.644,1.894222353
0.646,2.008453459
0.648,2.163481389
0.65,2.302190589
0.652,2.449059153
0.654,2.342987412
0.656,2.220596942
0.658,1.959497271
0.66,1.665760142
0.662,1.910541083
0.664,2.008453459
0.666,2.1145252
0.668,2.261393765
0.67,2.285871859
0.672,2.498015342
0.674,2.424581059
0.676,2.228756306
0.678,1.975816
0.68,1.820788071
0.682,2.041090918
0.684,2.13084393
0.686,2.228756306
0.688,2.294031224
0.69,2.351146777
0.692,2.571449624
0.694,2.563290259
0.696,2.351146777
0.698,2.000294095
0.7,1.967656636
0.702,2.245075036
0.704,2.179800118
0.706,2.277712495
0.708,2.424581059
0.71,2.3919436
0.712,2.759115012
0.714,2.587768353
0.716,2.465377883
0.718,2.090047106
0.72,2.057409647
0.722,2.236915671
0.724,2.351146777
0.726,2.383784236
0.728,2.449059153
0.73,2.555130894
0.732,2.840708659
0.734,2.636724542
0.736,2.465377883
0.738,2.187959483
0.74,2.236915671
0.742,2.375624871
0.744,2.383784236
0.746,2.440899789
0.748,2.54697153
0.75,2.579608989
0.752,2.775433741
0.754,2.604087083
0.756,2.465377883
0.758,2.057409647
0.76,2.13084393
0.762,2.302190589
0.764,2.245075036
0.766,2.228756306
0.768,2.375624871
0.77,2.498015342
0.772,2.620405812
0.774,2.400102965
0.776,2.310349953
0.778,1.959497271
0.78,1.967656636
0.782,2.016612824
0.784,2.000294095
0.786,2.204278212
0.788,2.26955313
0.79,2.383784236
0.792,2.514334071
0.794,2.318509318
0.796,2.196118847
0.798,1.788150612
0.8,1.902381718
0.802,1.951337906
0.804,2.000294095
0.806,2.163481389
0.808,2.220596942
0.81,2.261393765
0.812,2.383784236
0.814,2.26955313
0.816,2.098206471
0.818,1.657600777
0.82,1.877903624
0.822,1.983975365
0.824,1.935019177
0.826,2.057409647
0.828,2.13084393
0.83,2.261393765
0.832,2.375624871
0.834,2.090047106
0.836,2.155322024
0.838,1.788150612
0.84,1.894222353
0.842,1.926859812
0.844,2.008453459
0.846,2.098206471
0.848,2.139003295
0.85,2.40826233
0.852,2.375624871
0.854,2.179800118
0.856,1.926859812
0.858,1.624963318
0.86,1.796309977
0.862,1.918700448
0.864,1.910541083
0.866,2.106365836
0.868,2.147162659
0.87,2.383784236
0.872,2.424581059
0.874,2.204278212
0.876,1.935019177
0.878,1.624963318
0.88,1.926859812
0.882,1.983975365
0.884,2.024772189
0.886,2.179800118
0.888,2.212437577
0.89,2.424581059
0.892,2.367465506
0.894,2.179800118
0.896,1.886062989
0.898,1.6983976
0.9,1.902381718
0.902,2.032931553
0.904,2.065569012
0.906,2.179800118
0.908,2.245075036
0.91,2.400102965
0.912,2.40826233
0.914,2.171640753
0.916,1.812628706
0.918,1.788150612
0.92,2.065569012
0.922,1.983975365
0.924,2.081887742
0.926,2.187959483
0.928,2.2532344
0.93,2.383784236
0.932,2.318509318
0.934,2.073728377
0.936,1.951337906
0.938,1.779991248
0.94,1.967656636
0.942,1.959497271
0.944,2.147162659
0.946,2.212437577
0.948,2.13084393
0.95,2.3919436
0.952,2.294031224
0.954,2.155322024
0.956,1.861584895
0.958,1.649441412
0.96,1.918700448
0.962,1.99213473
0.964,2.098206471
0.966,2.163481389
0.968,2.163481389
0.97,2.465377883
0.972,2.334828047
0.974,2.1145252
0.976,1.902381718
0.978,1.71471633
0.98,1.983975365
0.982,2.000294095
0.984,2.1145252
0.986,2.147162659
0.988,2.155322024
0.99,2.3919436
0.992,2.285871859
0.994,2.090047106
0.996,1.804469342
0.998,1.739194424
1,1.85342553
1.002,1.894222353
1.004,2.000294095
1.006,2.098206471
1.008,2.098206471
1.01,2.318509318
1.012,2.245075036
1.014,2.098206471
1.016,1.779991248
1.018,1.755513153
1.02,1.967656636
1.022,1.861584895
1.024,1.967656636
1.026,2.106365836
1.028,2.090047106
1.03,2.342987412
1.032,2.196118847
1.034,1.99213473
1.036,1.722875695
1.038,1.763672518
1.04,1.869744259
1.042,1.877903624
1.044,1.967656636
1.046,2.041090918
1.048,2.122684565
1.05,2.563290259
1.052,2.277712495
1.054,2.073728377
1.056,1.755513153
1.058,1.869744259
1.06,1.861584895
1.062,1.820788071
1.064,1.804469342
1.066,2.147162659
1.068,2.171640753
1.07,2.277712495
1.072,2.261393765
1.074,2.1145252
1.076,1.755513153
1.078,1.845266165
1.08,1.845266165
1.082,1.99213473
1.084,2.057409647
1.086,2.122684565
1.088,2.236915671
1.09,2.440899789
1.092,2.228756306
1.094,2.057409647
1.096,1.633122683
1.098,1.804469342
1.1,1.910541083
1.102,1.983975365
1.104,2.073728377
1.106,2.187959483
1.108,2.342987412
1.11,2.3919436
1.112,2.179800118
1.114,2.016612824
1.116,1.600485224
1.118,1.877903624
1.12,1.910541083
1.122,1.918700448
1.124,2.106365836
1.126,2.122684565
1.128,2.310349953
1.13,2.342987412
1.132,2.090047106
1.134,1.943178542
1.136,1.616803953
1.138,1.886062989
1.14,1.951337906
1.142,1.935019177
1.144,2.13084393
1.146,2.155322024
1.148,2.342987412
1.15,2.351146777
1.152,2.139003295
1.154,2.032931553
1.156,1.682078871
1.158,1.877903624
1.16,2.016612824
1.162,2.065569012
1.164,2.196118847
1.166,2.212437577
1.168,2.375624871
1.17,2.334828047
1.172,2.187959483
1.174,1.983975365
1.176,1.722875695
1.178,2.016612824
1.18,1.99213473
1.182,2.147162659
1.184,2.228756306
1.186,2.261393765
1.188,2.40826233
1.19,2.3919436
1.192,2.212437577
1.194,1.967656636
1.196,1.771831883
1.198,2.065569012
1.2,2.245075036
1.202,2.212437577
1.204,2.285871859
1.206,2.310349953
1.208,2.571449624
1.21,2.514334071
1.212,2.424581059
1.214,2.106365836
1.216,1.788150612
1.218,2.041090918
1.22,2.13084393
1.222,2.261393765
1.224,2.351146777
1.226,2.375624871
1.228,2.54697153
1.23,2.489855977
1.232,2.294031224
1.234,2.000294095
1.236,1.763672518
1.238,2.041090918
1.24,2.016612824
1.242,2.073728377
1.244,2.228756306
1.246,2.261393765
1.248,2.514334071
1.25,2.440899789
1.252,2.261393765
1.254,1.902381718
1.256,1.673919506
1.258,1.902381718
1.26,1.959497271
1.262,2.041090918
1.264,2.106365836
1.266,2.147162659
1.268,2.334828047
1.27,2.285871859
1.272,2.122684565
1.274,1.812628706
1.276,1.616803953
1.278,1.877903624
1.28,1.869744259
1.282,2.049250283
1.284,2.1145252
1.286,2.139003295
1.288,2.342987412
1.29,2.285871859
1.292,2.171640753
1.294,1.861584895
1.296,1.690238236
1.298,1.894222353
1.3,1.959497271
1.302,2.024772189
1.304,2.032931553
1.306,2.016612824
1.308,2.294031224
1.31,2.139003295
1.312,1.877903624
1.314,1.478094753
1.316,1.43729793
1.318,1.755513153
1.32,1.8371068
1.322,2.000294095
1.324,2.220596942
1.326,2.40826233
1.328,2.914142941
1.33,2.987577224
1.332,2.938621036
1.334,2.914142941
1.336,3.069170871
1.338,3.354748636
1.34,3.493457835
1.342,3.468979741
1.344,3.730079412
1.346,3.65664513
1.348,3.754557506
1.35,3.362908
1.352,3.0854896
1.354,2.538812165
1.356,2.342987412
1.358,2.261393765
1.36,2.057409647
1.362,1.951337906
1.364,2.171640753
1.366,2.245075036
1.368,2.26955313
1.37,2.1145252
1.372,1.910541083
1.374,1.608644589
1.376,1.567847765
1.378,1.665760142
1.38,1.657600777
1.382,1.845266165
1.384,1.951337906
1.386,2.065569012
1.388,2.220596942
1.39,2.098206471
1.392,2.081887742
1.394,1.722875695
1.396,1.85342553
1.398,1.902381718
1.4,1.983975365
1.402,2.098206471
1.404,2.155322024
1.406,2.220596942
1.408,2.400102965
1.41,2.163481389
1.412,2.106365836
1.414,1.755513153
1.416,1.943178542
1.418,2.049250283
1.42,2.057409647
1.422,2.000294095
1.424,2.228756306
1.426,2.367465506
1.428,2.383784236
1.43,2.245075036
1.432,2.098206471
1.434,1.771831883
1.436,2.000294095
1.438,2.065569012
1.44,2.106365836
1.442,2.171640753
1.444,2.294031224
1.446,2.465377883
1.448,2.40826233
1.45,2.245075036
1.452,2.106365836
1.454,1.706556965
1.456,1.99213473
1.458,2.106365836
1.46,2.147162659
1.462,2.261393765
1.464,2.342987412
1.466,2.563290259
1.468,2.489855977
1.47,2.285871859
1.472,2.179800118
1.474,1.959497271
1.476,2.147162659
1.478,2.090047106
1.48,2.139003295
1.482,2.424581059
1.484,2.473537247
1.486,2.669362
1.488,2.579608989
1.49,2.326668683
1.492,2.139003295
1.494,1.861584895
1.496,2.147162659
1.498,2.2532344
1.5,2.2532344
1.502,2.342987412
1.504,2.473537247
1.506,2.718318189
1.508,2.661202636
1.51,2.440899789
1.512,2.187959483
1.514,1.926859812
1.516,2.204278212
1.518,2.318509318
1.52,2.424581059
1.522,2.498015342
1.524,2.465377883
1.526,2.726477553
1.528,2.750955647
1.53,2.644883906
1.532,2.367465506
1.534,2.073728377
1.536,2.26955313
1.538,2.367465506
1.54,2.481696612
1.542,2.522493436
1.544,2.68568073
1.546,2.914142941
1.548,2.865186753
1.55,2.628565177
1.552,2.367465506
1.554,2.318509318
1.556,2.416421694
1.558,2.473537247
1.56,2.5306528
1.562,2.701999459
1.564,2.791752471
1.566,2.995736589
1.568,2.865186753
1.57,2.68568073
1.572,2.481696612
1.574,2.285871859
1.576,2.514334071
1.578,2.514334071
1.58,2.669362
1.582,2.775433741
1.584,2.759115012
1.586,3.012055318
1.588,2.930461671
1.59,2.726477553
1.592,2.424581059
1.594,2.359306142
1.596,2.54697153
1.598,2.473537247
1.6,2.579608989
1.602,2.710158824
1.604,2.710158824
1.606,2.9467804
1.608,2.775433741
1.61,2.653043271
1.612,2.245075036
1.614,2.204278212
1.616,2.351146777
1.618,2.359306142
1.62,2.383784236
1.622,2.506174706
1.624,2.538812165
1.626,2.759115012
1.628,2.612246447
1.63,2.424581059
1.632,2.032931553
1.634,2.081887742
1.636,2.204278212
1.638,2.187959483
1.64,2.245075036
1.642,2.334828047
1.644,2.3919436
1.646,2.506174706
1.648,2.432740424
1.65,2.334828047
1.652,2.008453459
1.654,1.935019177
1.656,1.967656636
1.658,2.049250283
1.66,2.106365836
1.662,2.351146777
1.664,2.342987412
1.666,2.506174706
1.668,2.351146777
1.67,2.187959483
1.672,1.869744259
1.674,1.926859812
1.676,1.975816
1.678,2.032931553
1.68,2.098206471
1.682,2.334828047
1.684,2.318509318
1.686,2.457218518
1.688,2.2532344
1.69,2.179800118
1.692,1.722875695
1.694,1.894222353
1.696,2.032931553
1.698,2.041090918
1.7,2.220596942
1.702,2.285871859
1.704,2.473537247
1.706,2.54697153
1.708,2.294031224
1.71,2.155322024
1.712,1.779991248
1.714,1.983975365
1.716,1.959497271
1.718,2.024772189
1.72,2.139003295
1.722,2.310349953
1.724,2.498015342
1.726,2.457218518
1.728,2.2532344
1.73,2.090047106
1.732,1.747353789
1.734,1.894222353
1.736,2.008453459
1.738,2.032931553
1.74,2.220596942
1.742,2.228756306
1.744,2.375624871
1.746,2.400102965
1.748,2.261393765
1.75,2.008453459
1.752,1.673919506
1.754,1.975816
1.756,2.098206471
1.758,1.975816
1.76,2.13084393
1.762,2.220596942
1.764,2.416421694
1.766,2.3919436
1.768,2.212437577
1.77,2.057409647
1.772,1.673919506
1.774,1.935019177
1.776,2.041090918
1.778,2.081887742
1.78,2.13084393
1.782,2.163481389
1.784,2.40826233
1.786,2.334828047
1.788,2.220596942
1.79,1.959497271
1.792,1.608644589
1.794,1.951337906
1.796,1.951337906
1.798,1.918700448
1.8,2.081887742
1.802,2.171640753
1.804,2.465377883
1.806,2.3919436
1.808,2.187959483
1.81,1.877903624
1.812,1.616803953
1.814,1.845266165
1.816,1.926859812
1.818,2.090047106
1.82,2.204278212
1.822,2.139003295
1.824,2.342987412
1.826,2.318509318
1.828,2.147162659
1.83,1.877903624
1.832,1.657600777
1.834,1.918700448
1.836,2.000294095
1.838,1.975816
1.84,2.187959483
1.842,2.228756306
1.844,2.400102965
1.846,2.432740424
1.848,2.090047106
1.85,1.85342553
1.852,1.739194424
1.854,1.975816
1.856,1.935019177
1.858,2.024772189
1.86,2.155322024
1.862,2.179800118
1.864,2.465377883
1.866,2.351146777
1.868,2.179800118
1.87,1.779991248
1.872,1.641282048
1.874,1.951337906
1.876,2.057409647
1.878,2.057409647
1.88,2.171640753
1.882,2.204278212
1.884,2.440899789
1.886,2.400102965
1.888,2.228756306
1.89,1.845266165
1.892,1.763672518
1.894,1.926859812
1.896,2.024772189
1.898,2.081887742
1.9,2.212437577
1.902,2.245075036
1.904,2.506174706
1.906,2.375624871
1.908,2.13084393
1.91,1.763672518
1.912,1.845266165
1.914,2.024772189
1.916,1.983975365
1.918,2.090047106
1.92,2.171640753
1.922,2.2532344
1.924,2.506174706
1.926,2.310349953
1.928,2.171640753
1.93,1.796309977
1.932,1.861584895
1.934,2.041090918
1.936,1.967656636
1.938,2.13084393
1.94,2.302190589
1.942,2.294031224
1.944,2.5306528
1.946,2.294031224
1.948,2.171640753
1.95,1.918700448
1.952,1.926859812
1.954,2.041090918
1.956,2.081887742
1.958,2.1145252
1.96,2.342987412
1.962,2.3919436
1.964,2.514334071
1.966,2.367465506
1.968,2.326668683
1.97,1.902381718
1.972,1.894222353
1.974,2.065569012
1.976,2.155322024
1.978,2.220596942
1.98,2.359306142
1.982,2.457218518
1.984,2.68568073
1.986,2.457218518
1.988,2.3919436
1.99,1.975816
1.992,2.073728377
1.994,2.196118847
1.996,2.204278212
1.998,2.285871859
2,2.40826233
2.002,2.587768353
2.004,2.604087083
2.006,2.375624871
2.008,2.26955313
2.01,1.861584895
2.012,2.065569012
2.014,2.163481389
2.016,2.171640753
2.018,2.302190589
2.02,2.359306142
2.022,2.473537247
2.024,2.579608989
2.026,2.424581059
2.028,2.204278212
2.03,1.894222353
2.032,2.049250283
2.034,2.081887742
2.036,2.147162659
2.038,2.26955313
2.04,2.196118847
2.042,2.424581059
2.044,2.440899789
2.046,2.245075036
2.048,2.065569012
2.05,1.771831883
2.052,1.910541083
2.054,1.99213473
2.056,2.147162659
2.058,2.302190589
2.06,2.310349953
2.062,2.457218518
2.064,2.334828047
2.066,2.171640753
2.068,2.008453459
2.07,1.747353789
2.072,1.886062989
2.074,1.967656636
2.076,1.99213473
2.078,2.228756306
2.08,2.261393765
2.082,2.473537247
2.084,2.424581059
2.086,2.236915671
2.088,2.000294095
2.09,1.771831883
2.092,1.99213473
2.094,1.967656636
2.096,1.967656636
2.098,2.163481389
2.1,2.122684565
2.102,2.367465506
2.104,2.285871859
2.106,2.024772189
2.108,1.747353789
2.11,1.404660471
2.112,1.755513153
2.114,1.877903624
2.116,1.943178542
2.118,2.212437577
2.12,2.432740424
2.122,2.832549294
2.124,3.012055318
2.126,3.10180833
2.128,3.052852141
2.13,2.995736589
2.132,3.509776565
2.134,3.632167035
2.136,3.697441953
2.138,3.697441953
2.14,3.65664513
2.142,3.852469882
2.144,3.65664513
2.146,3.232358165
2.148,2.775433741
2.15,2.359306142
2.152,2.3919436
2.154,2.277712495
2.156,2.155322024
2.158,2.245075036
2.16,2.261393765
2.162,2.416421694
2.164,2.26955313
2.166,2.073728377
2.168,1.804469342
2.17,1.559688401
2.172,1.779991248
2.174,1.804469342
2.176,1.967656636
2.178,2.139003295
2.18,2.139003295
2.182,2.326668683
2.184,2.236915671
2.186,2.098206471
2.188,1.828947436
2.19,1.739194424
2.192,1.943178542
2.194,2.000294095
2.196,2.065569012
2.198,2.2532344
2.2,2.204278212
2.202,2.563290259
2.204,2.3919436
2.206,2.13084393
2.208,1.886062989
2.21,1.788150612
2.212,2.049250283
2.214,2.147162659
2.216,2.1145252
2.218,2.2532344
2.22,2.294031224
2.222,2.351146777
2.224,2.3919436
2.226,2.26955313
2.228,1.926859812
2.23,1.951337906
2.232,2.081887742
2.234,2.106365836
2.236,2.171640753
2.238,2.294031224
2.24,2.342987412
2.242,2.644883906
2.244,2.424581059
2.246,2.310349953
2.248,2.041090918
2.25,2.041090918
2.252,2.171640753
2.254,2.220596942
2.256,2.310349953
2.258,2.457218518
2.26,2.506174706
2.262,2.693840094
2.264,2.5306528
2.266,2.40826233
2.268,2.041090918
2.27,2.171640753
2.272,2.261393765
2.274,2.310349953
2.276,2.416421694
2.278,2.481696612
2.28,2.465377883
2.282,2.750955647
2.284,2.522493436
2.286,2.440899789
2.288,2.13084393
2.29,2.228756306
2.292,2.318509318
2.294,2.285871859
2.296,2.465377883
2.298,2.555130894
2.3,2.693840094
2.302,2.791752471
2.304,2.628565177
2.306,2.620405812
2.308,2.179800118
2.31,2.367465506
2.312,2.416421694
2.314,2.473537247
2.316,2.555130894
2.318,2.653043271
2.32,2.775433741
2.322,2.905983577
2.324,2.742796283
2.326,2.54697153
2.328,2.285871859
2.33,2.449059153
2.332,2.54697153
2.334,2.612246447
2.336,2.8080712
2.338,2.750955647
2.34,2.873346118
2.342,2.979417859
2.344,2.799911836
2.346,2.604087083
2.348,2.367465506
2.35,2.514334071
2.352,2.653043271
2.354,2.710158824
2.356,2.791752471
2.358,2.881505483
2.36,3.093648965
2.362,3.118127059
2.364,3.003895953
2.366,2.734636918
2.368,2.432740424
2.37,2.595927718
2.372,2.693840094
2.374,2.710158824
2.376,2.881505483
2.378,3.003895953
2.38,3.248676894
2.382,3.183401977
2.384,3.012055318
2.386,2.750955647
2.388,2.465377883
2.39,2.68568073
2.392,2.759115012
2.394,2.799911836
2.396,2.865186753
2.398,2.897824212
2.4,3.150764518
2.402,3.0854896
2.404,2.865186753
2.406,2.563290259
2.408,2.277712495
2.41,2.644883906
2.412,2.661202636
2.414,2.701999459
2.416,2.791752471
2.418,2.742796283
2.42,3.012055318
2.422,2.881505483
2.424,2.669362
2.426,2.432740424
2.428,2.2532344
2.43,2.481696612
2.432,2.54697153
2.434,2.498015342
2.436,2.514334071
2.438,2.636724542
2.44,2.9467804
2.442,2.848868024
2.444,2.628565177
2.446,2.351146777
2.448,2.13084393
2.45,2.473537247
2.452,2.440899789
2.454,2.506174706
2.456,2.620405812
2.458,2.669362
2.46,2.938621036
2.462,2.775433741
2.464,2.563290259
2.466,2.220596942
2.468,2.155322024
2.47,2.449059153
2.472,2.3919436
2.474,2.555130894
2.476,2.628565177
2.478,2.661202636
2.48,2.930461671
2.482,2.82438993
2.484,2.636724542
2.486,2.245075036
2.488,2.236915671
2.49,2.481696612
2.492,2.465377883
2.494,2.595927718
2.496,2.718318189
2.498,2.644883906
2.5,2.9467804
2.502,2.775433741
2.504,2.677521365
2.506,2.2532344
2.508,2.2532344
2.51,2.449059153
2.512,2.40826233
2.514,2.465377883
2.516,2.669362
2.518,2.669362
2.52,2.889664847
2.522,2.669362
2.524,2.587768353
2.526,2.302190589
2.528,2.302190589
2.53,2.457218518
2.532,2.473537247
2.534,2.538812165
2.536,2.653043271
2.538,2.636724542
2.54,2.865186753
2.542,2.636724542
2.544,2.473537247
2.546,2.204278212
2.548,2.2532344
2.55,2.285871859
2.552,2.342987412
2.554,2.400102965
2.556,2.587768353
2.558,2.579608989
2.56,2.775433741
2.562,2.579608989
2.564,2.449059153
2.566,2.016612824
2.568,2.122684565
2.57,2.26955313
2.572,2.277712495
2.574,2.367465506
2.576,2.440899789
2.578,2.481696612
2.58,2.628565177
2.582,2.489855977
2.584,2.351146777
2.586,1.983975365
2.588,2.041090918
2.59,2.163481389
2.592,2.26955313
2.594,2.302190589
2.596,2.465377883
2.598,2.473537247
2.6,2.579608989
2.602,2.465377883
2.604,2.302190589
2.606,1.983975365
2.608,2.163481389
2.61,2.196118847
2.612,2.179800118
2.614,2.334828047
2.616,2.457218518
2.618,2.595927718
2.62,2.538812165
2.622,2.432740424
2.624,2.285871859
2.626,1.886062989
2.628,2.098206471
2.63,2.196118847
2.632,2.212437577
2.634,2.367465506
2.636,2.457218518
2.638,2.701999459
2.64,2.5306528
2.642,2.424581059
2.644,2.245075036
2.646,1.8371068
2.648,2.106365836
2.65,2.171640753
2.652,2.245075036
2.654,2.3919436
2.656,2.310349953
2.658,2.5306528
2.66,2.636724542
2.662,2.40826233
2.664,2.139003295
2.666,1.8371068
2.668,2.098206471
2.67,2.155322024
2.672,2.2532344
2.674,2.342987412
2.676,2.351146777
2.678,2.604087083
2.68,2.653043271
2.682,2.326668683
2.684,2.1145252
2.686,1.8371068
2.688,2.1145252
2.69,2.179800118
2.692,2.212437577
2.694,2.342987412
2.696,2.383784236
2.698,2.620405812
2.7,2.628565177
2.702,2.351146777
2.704,2.065569012
2.706,1.861584895
2.708,2.122684565
2.71,2.220596942
2.712,2.196118847
2.714,2.318509318
2.716,2.383784236
2.718,2.636724542
2.72,2.555130894
2.722,2.3919436
2.724,2.065569012
2.726,1.828947436
2.728,2.073728377
2.73,2.1145252
2.732,2.212437577
2.734,2.310349953
2.736,2.245075036
2.738,2.595927718
2.74,2.498015342
2.742,2.359306142
2.744,2.081887742
2.746,1.763672518
2.748,2.098206471
2.75,2.057409647
2.752,2.204278212
2.754,2.367465506
2.756,2.334828047
2.758,2.612246447
2.76,2.522493436
2.762,2.334828047
2.764,2.122684565
2.766,1.967656636
2.768,2.139003295
2.77,2.016612824
2.772,2.13084393
2.774,2.302190589
2.776,2.326668683
2.778,2.498015342
2.78,2.506174706
2.782,2.40826233
2.784,1.926859812
2.786,1.796309977
2.788,2.171640753
2.79,2.155322024
2.792,2.179800118
2.794,2.375624871
2.796,2.318509318
2.798,2.636724542
2.8,2.5306528
2.802,2.359306142
2.804,2.041090918
2.806,2.008453459
2.808,2.179800118
2.81,2.228756306
2.812,2.302190589
2.814,2.440899789
2.816,2.432740424
2.818,2.726477553
2.82,2.620405812
2.822,2.424581059
2.824,2.1145252
2.826,2.155322024
2.828,2.310349953
2.83,2.261393765
2.832,2.326668683
2.834,2.416421694
2.836,2.3919436
2.838,2.68568073
2.84,2.498015342
2.842,2.432740424
2.844,2.049250283
2.846,2.122684565
2.848,2.228756306
2.85,2.228756306
2.852,2.26955313
2.854,2.375624871
2.856,2.440899789
2.858,2.587768353
2.86,2.294031224
2.862,2.212437577
2.864,1.8371068
2.866,1.943178542
2.868,2.13084393
2.87,2.049250283
2.872,2.057409647
2.874,2.26955313
2.876,2.351146777
2.878,2.514334071
2.88,2.261393765
2.882,2.187959483
2.884,1.755513153
2.886,1.975816
2.888,2.032931553
2.89,2.057409647
2.892,2.171640753
2.894,2.310349953
2.896,2.424581059
2.898,2.489855977
2.9,2.261393765
2.902,2.090047106
2.904,1.812628706
2.906,2.081887742
2.908,2.024772189
2.91,2.032931553
2.912,2.220596942
2.914,2.277712495
2.916,2.334828047
2.918,2.359306142
2.92,2.155322024
2.922,2.024772189
2.924,1.706556965
2.926,1.861584895
2.928,1.983975365
2.93,1.951337906
2.932,2.098206471
2.934,2.13084393
2.936,2.334828047
2.938,2.514334071
2.94,2.506174706
2.942,2.3919436
2.944,2.375624871
2.946,2.767274377
2.948,3.10180833
2.95,3.403704824
2.952,3.697441953
2.954,3.860629247
2.956,4.07277273
2.958,3.991179082
2.96,3.811673059
2.962,3.460820377
2.964,3.003895953
2.966,3.191561341
2.968,2.987577224
2.97,2.816230565
2.972,2.791752471
2.974,2.653043271
2.976,2.644883906
2.978,2.555130894
2.98,2.204278212
2.982,2.008453459
2.984,1.763672518
2.986,1.8371068
2.988,1.935019177
2.99,1.943178542
2.992,2.081887742
2.994,2.147162659
2.996,2.383784236
2.998,2.367465506
3,2.187959483
3.002,1.943178542
3.004,1.616803953
3.006,2.073728377
3.008,2.024772189
3.01,2.1145252
3.012,2.277712495
3.014,2.326668683
3.016,2.571449624
3.018,2.498015342
3.02,2.334828047
3.022,2.016612824
3.024,1.771831883
3.026,2.13084393
3.028,2.155322024
3.03,2.1145252
3.032,2.236915671
3.034,2.228756306
3.036,2.481696612
3.038,2.514334071
3.04,2.261393765
3.042,2.024772189
3.044,1.812628706
3.046,2.049250283
3.048,1.967656636
3.05,2.245075036
3.052,2.342987412
3.054,2.383784236
3.056,2.620405812
3.058,2.465377883
3.06,2.326668683
3.062,2.073728377
3.064,1.943178542
3.066,2.139003295
3.068,2.098206471
3.07,2.212437577
3.072,2.383784236
3.074,2.400102965
3.076,2.628565177
3.078,2.481696612
3.08,2.334828047
3.082,2.049250283
3.084,1.902381718
3.086,2.122684565
3.088,2.122684565
3.09,2.220596942
3.092,2.367465506
3.094,2.359306142
3.096,2.653043271
3.098,2.440899789
3.1,2.294031224
3.102,2.032931553
3.104,1.99213473
3.106,2.155322024
3.108,2.171640753
3.11,2.342987412
3.112,2.449059153
3.114,2.432740424
3.116,2.677521365
3.118,2.481696612
3.12,2.310349953
3.122,2.081887742
3.124,2.147162659
3.126,2.147162659
3.128,2.122684565
3.13,2.236915671
3.132,2.40826233
3.134,2.538812165
3.136,2.750955647
3.138,2.506174706
3.14,2.40826233
3.142,2.057409647
3.144,2.163481389
3.146,2.261393765
3.148,2.310349953
3.15,2.310349953
3.152,2.604087083
3.154,2.636724542
3.156,2.767274377
3.158,2.612246447
3.16,2.514334071
3.162,2.122684565
3.164,2.228756306
3.166,2.400102965
3.168,2.481696612
3.17,2.449059153
3.172,2.726477553
3.174,2.718318189
3.176,2.865186753
3.178,2.604087083
3.18,2.54697153
3.182,2.212437577
3.184,2.367465506
3.186,2.424581059
3.188,2.5306528
3.19,2.604087083
3.192,2.693840094
3.194,2.873346118
3.196,2.9467804
3.198,2.759115012
3.2,2.628565177
3.202,2.236915671
3.204,2.424581059
3.206,2.538812165
3.208,2.571449624
3.21,2.734636918
3.212,2.767274377
3.214,2.897824212
3.216,2.881505483
3.218,2.701999459
3.22,2.522493436
3.222,2.155322024
3.224,2.318509318
3.226,2.400102965
3.228,2.400102965
3.23,2.604087083
3.232,2.595927718
3.234,2.693840094
3.236,2.718318189
3.238,2.506174706
3.24,2.367465506
3.242,2.024772189
3.244,2.106365836
3.246,2.236915671
3.248,2.220596942
3.25,2.334828047
3.252,2.522493436
3.254,2.579608989
3.256,2.563290259
3.258,2.457218518
3.26,2.212437577
3.262,1.910541083
3.264,2.098206471
3.266,2.122684565
3.268,2.171640753
3.27,2.334828047
3.272,2.383784236
3.274,2.718318189
3.276,2.498015342
3.278,2.351146777
3.28,2.13084393
3.282,1.861584895
3.284,2.147162659
3.286,2.196118847
3.288,2.245075036
3.29,2.375624871
3.292,2.351146777
3.294,2.604087083
3.296,2.604087083
3.298,2.375624871
3.3,2.13084393
3.302,1.877903624
3.304,2.196118847
3.306,2.147162659
3.308,2.245075036
3.31,2.310349953
3.312,2.473537247
3.314,2.710158824
3.316,2.661202636
3.318,2.367465506
3.32,2.057409647
3.322,1.8371068
3.324,2.049250283
3.326,2.171640753
3.328,2.2532344
3.33,2.2532344
3.332,2.302190589
3.334,2.522493436
3.336,2.481696612
3.338,2.326668683
3.34,2.081887742
3.342,1.877903624
3.344,2.147162659
3.346,2.1145252
3.348,2.163481389
3.35,2.277712495
3.352,2.326668683
3.354,2.604087083
3.356,2.5306528
3.358,2.351146777
3.36,2.049250283
3.362,1.918700448
3.364,2.122684565
3.366,2.13084393
3.368,2.26955313
3.37,2.359306142
3.372,2.424581059
3.374,2.669362
3.376,2.481696612
3.378,2.342987412
3.38,2.016612824
3.382,1.902381718
3.384,2.106365836
3.386,2.122684565
3.388,2.163481389
3.39,2.326668683
3.392,2.302190589
3.394,2.595927718
3.396,2.555130894
3.398,2.326668683
3.4,2.016612824
3.402,2.008453459
3.404,2.163481389
3.406,2.171640753
3.408,2.277712495
3.41,2.277712495
3.412,2.416421694
3.414,2.653043271
3.416,2.424581059
3.418,2.285871859
3.42,1.894222353
3.422,2.000294095
3.424,2.147162659
3.426,2.220596942
3.428,2.139003295
3.43,2.294031224
3.432,2.383784236
3.434,2.669362
3.436,2.432740424
3.438,2.334828047
3.44,1.877903624
3.442,2.000294095
3.444,2.155322024
3.446,2.163481389
3.448,2.196118847
3.45,2.334828047
3.452,2.375624871
3.454,2.604087083
3.456,2.400102965
3.458,2.26955313
3.46,1.877903624
3.462,2.049250283
3.464,2.155322024
3.466,2.179800118
3.468,2.212437577
3.47,2.351146777
3.472,2.473537247
3.474,2.563290259
3.476,2.457218518
3.478,2.318509318
3.48,1.943178542
3.482,2.098206471
3.484,2.098206471
3.486,2.139003295
3.488,2.277712495
3.49,2.40826233
3.492,2.473537247
3.494,2.555130894
3.496,2.367465506
3.498,2.334828047
3.5,1.812628706
3.502,1.935019177
3.504,2.179800118
3.506,2.212437577
3.508,2.2532344
3.51,2.342987412
3.512,2.457218518
3.514,2.587768353
3.516,2.440899789
3.518,2.163481389
3.52,1.877903624
3.522,2.073728377
3.524,2.220596942
3.526,2.2532344
3.528,2.26955313
3.53,2.359306142
3.532,2.579608989
3.534,2.612246447
3.536,2.3919436
3.538,2.139003295
3.54,1.845266165
3.542,2.122684565
3.544,2.204278212
3.546,2.081887742
3.548,2.351146777
3.55,2.310349953
3.552,2.400102965
3.554,2.514334071
3.556,2.3919436
3.558,2.098206471
3.56,1.763672518
3.562,2.13084393
3.564,2.196118847
3.566,2.163481389
3.568,2.261393765
3.57,2.277712495
3.572,2.457218518
3.574,2.489855977
3.576,2.334828047
3.578,2.073728377
3.58,1.804469342
3.582,2.090047106
3.584,2.098206471
3.586,2.065569012
3.588,2.2532344
3.59,2.261393765
3.592,2.514334071
3.594,2.538812165
3.596,2.351146777
3.598,1.983975365
3.6,1.804469342
3.602,2.106365836
3.604,2.090047106
3.606,2.236915671
3.608,2.432740424
3.61,2.40826233
3.612,2.595927718
3.614,2.555130894
3.616,2.342987412
3.618,2.106365836
3.62,1.820788071
3.622,2.147162659
3.624,2.204278212
3.626,2.236915671
3.628,2.342987412
3.63,2.318509318
3.632,2.481696612
3.634,2.555130894
3.636,2.432740424
3.638,2.081887742
3.64,1.869744259
3.642,2.179800118
3.644,2.106365836
3.646,2.236915671
3.648,2.40826233
3.65,2.40826233
3.652,2.693840094
3.654,2.579608989
3.656,2.481696612
3.658,2.147162659
3.66,2.041090918
3.662,2.261393765
3.664,2.187959483
3.666,2.2532344
3.668,2.489855977
3.67,2.587768353
3.672,2.840708659
3.674,2.701999459
3.676,2.522493436
3.678,2.212437577
3.68,2.1145252
3.682,2.375624871
3.684,2.310349953
3.686,2.342987412
3.688,2.473537247
3.69,2.514334071
3.692,2.857027389
3.694,2.726477553
3.696,2.5306528
3.698,2.147162659
3.7,2.106365836
3.702,2.236915671
3.704,2.220596942
3.706,2.359306142
3.708,2.457218518
3.71,2.54697153
3.712,2.759115012
3.714,2.579608989
3.716,2.367465506
3.718,2.016612824
3.72,1.975816
3.722,2.106365836
3.724,2.171640753
3.726,2.204278212
3.728,2.334828047
3.73,2.367465506
3.732,2.677521365
3.734,2.416421694
3.736,2.294031224
3.738,1.820788071
3.74,1.99213473
3.742,2.090047106
3.744,2.155322024
3.746,2.13084393
3.748,2.261393765
3.75,2.334828047
3.752,2.481696612
3.754,2.310349953
3.756,2.261393765
3.758,1.877903624
3.76,1.926859812
3.762,2.008453459
3.764,2.016612824
3.766,2.139003295
3.768,2.318509318
3.77,2.2532344
3.772,2.514334071
3.774,2.220596942
3.776,2.122684565
3.778,1.633122683
3.78,1.869744259
3.782,1.975816
3.784,1.975816
3.786,1.918700448
3.788,2.1145252
3.79,2.351146777
3.792,2.522493436
3.794,2.465377883
3.796,2.473537247
3.798,2.375624871
3.8,2.791752471
3.802,3.158923883
3.804,3.354748636
3.806,3.65664513
3.808,3.885107341
3.81,4.211481929
3.812,4.260438118
3.814,3.999338447
3.816,3.689282588
3.818,3.248676894
3.82,3.297633083
3.822,3.256836259
3.824,3.0854896
3.826,3.061011506
3.828,2.783593106
3.83,2.734636918
3.832,2.636724542
3.834,2.40826233
3.836,2.212437577
3.838,1.861584895
3.84,2.008453459
3.842,2.041090918
3.844,2.000294095
3.846,2.179800118
3.848,2.236915671
3.85,2.416421694
3.852,2.424581059
3.854,2.228756306
3.856,2.000294095
3.858,1.788150612
3.86,2.032931553
3.862,2.13084393
3.864,2.196118847
3.866,2.220596942
3.868,2.416421694
3.87,2.604087083
3.872,2.465377883
3.874,2.277712495
3.876,2.032931553
3.878,1.886062989
3.88,2.13084393
3.882,2.204278212
3.884,2.2532344
3.886,2.294031224
3.888,2.351146777
3.89,2.563290259
3.892,2.563290259
3.894,2.277712495
3.896,2.1145252
3.898,1.8371068
3.9,2.106365836
3.902,2.196118847
3.904,2.196118847
3.906,2.261393765
3.908,2.351146777
3.91,2.604087083
3.912,2.506174706
3.914,2.302190589
3.916,2.106365836
3.918,1.85342553
3.92,2.236915671
3.922,2.236915671
3.924,2.294031224
3.926,2.351146777
3.928,2.465377883
3.93,2.68568073
3.932,2.579608989
3.934,2.383784236
3.936,2.147162659
3.938,1.902381718
3.94,2.187959483
3.942,2.139003295
3.944,2.204278212
3.946,2.359306142
3.948,2.498015342
3.95,2.701999459
3.952,2.538812165
3.954,2.400102965
3.956,2.106365836
3.958,1.959497271
3.96,2.236915671
3.962,2.285871859
3.964,2.359306142
3.966,2.424581059
3.968,2.457218518
3.97,2.669362
3.972,2.489855977
3.974,2.416421694
3.976,2.171640753
3.978,2.1145252
3.98,2.302190589
3.982,2.261393765
3.984,2.367465506
3.986,2.653043271
3.988,2.628565177
3.99,2.775433741
3.992,2.701999459
3.994,2.644883906
3.996,2.294031224
3.998,2.236915671
4,2.367465506
4.002,2.489855977
4.004,2.54697153
4.006,2.644883906
4.008,2.669362
4.01,2.96309913
4.012,2.840708659
4.014,2.767274377
4.016,2.294031224
4.018,2.416421694
4.02,2.555130894
4.022,2.506174706
4.024,2.742796283
4.026,2.865186753
4.028,2.832549294
4.03,3.028374047
4.032,2.857027389
4.034,2.799911836
4.036,2.489855977
4.038,2.473537247
4.04,2.644883906
4.042,2.579608989
4.044,2.636724542
4.046,2.799911836
4.048,2.889664847
4.05,3.077330236
4.052,2.832549294
4.054,2.759115012
4.056,2.383784236
4.058,2.563290259
4.06,2.644883906
4.062,2.612246447
4.064,2.644883906
4.066,2.734636918
4.068,2.865186753
4.07,2.971258494
4.072,2.82438993
4.074,2.68568073
4.076,2.236915671
4.078,2.383784236
4.08,2.465377883
4.082,2.432740424
4.084,2.54697153
4.086,2.644883906
4.088,2.677521365
4.09,2.938621036
4.092,2.653043271
4.094,2.449059153
4.096,2.13084393
4.098,2.285871859
4.1,2.383784236
4.102,2.3919436
4.104,2.424581059
4.106,2.514334071
4.108,2.628565177
4.11,2.68568073
4.112,2.522493436
4.114,2.245075036
4.116,2.000294095
4.118,2.147162659
4.12,2.212437577
4.122,2.318509318
4.124,2.449059153
4.126,2.498015342
4.128,2.612246447
4.13,2.701999459
4.132,2.440899789
4.134,2.171640753
4.136,1.99213473
4.138,2.196118847
4.14,2.171640753
4.142,2.196118847
4.144,2.383784236
4.146,2.481696612
4.148,2.68568073
4.15,2.68568073
4.152,2.424581059
4.154,2.155322024
4.156,1.951337906
4.158,2.245075036
4.16,2.277712495
4.162,2.310349953
4.164,2.489855977
4.166,2.571449624
4.168,2.677521365
4.17,2.612246447
4.172,2.424581059
4.174,2.171640753
4.176,1.99213473
4.178,2.228756306
4.18,2.326668683
4.182,2.432740424
4.184,2.465377883
4.186,2.514334071
4.188,2.783593106
4.19,2.661202636
4.192,2.514334071
4.194,2.212437577
4.196,2.008453459
4.198,2.236915671
4.2,2.277712495
4.202,2.351146777
4.204,2.489855977
4.206,2.571449624
4.208,2.710158824
4.21,2.636724542
4.212,2.440899789
4.214,2.2532344
4.216,2.098206471
4.218,2.326668683
4.22,2.310349953
4.222,2.40826233
4.224,2.481696612
4.226,2.522493436
4.228,2.767274377
4.23,2.68568073
4.232,2.506174706
4.234,2.187959483
4.236,2.000294095
4.238,2.261393765
4.24,2.212437577
4.242,2.310349953
4.244,2.440899789
4.246,2.465377883
4.248,2.734636918
4.25,2.653043271
4.252,2.498015342
4.254,2.220596942
4.256,2.155322024
4.258,2.342987412
4.26,2.294031224
4.262,2.400102965
4.264,2.432740424
4.266,2.612246447
4.268,2.775433741
4.27,2.661202636
4.272,2.5306528
4.274,2.228756306
4.276,2.122684565
4.278,2.334828047
4.28,2.359306142
4.282,2.465377883
4.284,2.571449624
4.286,2.54697153
4.288,2.832549294
4.29,2.734636918
4.292,2.5306528
4.294,2.220596942
4.296,2.245075036
4.298,2.310349953
4.3,2.351146777
4.302,2.489855977
4.304,2.595927718
4.306,2.54697153
4.308,2.865186753
4.31,2.710158824
4.312,2.563290259
4.314,2.122684565
4.316,2.245075036
4.318,2.285871859
4.32,2.375624871
4.322,2.3919436
4.324,2.571449624
4.326,2.628565177
4.328,2.832549294
4.33,2.734636918
4.332,2.514334071
4.334,2.212437577
4.336,2.310349953
4.338,2.3919436
4.34,2.424581059
4.342,2.481696612
4.344,2.595927718
4.346,2.710158824
4.348,2.865186753
4.35,2.661202636
4.352,2.5306528
4.354,2.139003295
4.356,2.26955313
4.358,2.302190589
4.36,2.400102965
4.362,2.465377883
4.364,2.587768353
4.366,2.693840094
4.368,2.799911836
4.37,2.612246447
4.372,2.514334071
4.374,2.147162659
4.376,2.2532344
4.378,2.359306142
4.38,2.342987412
4.382,2.538812165
4.384,2.579608989
4.386,2.791752471
4.388,2.8080712
4.39,2.604087083
4.392,2.40826233
4.394,2.041090918
4.396,2.277712495
4.398,2.318509318
4.4,2.367465506
4.402,2.571449624
4.404,2.653043271
4.406,2.767274377
4.408,2.791752471
4.41,2.734636918
4.412,2.449059153
4.414,2.147162659
4.416,2.359306142
4.418,2.416421694
4.42,2.449059153
4.422,2.604087083
4.424,2.620405812
4.426,2.783593106
4.428,2.832549294
4.43,2.653043271
4.432,2.400102965
4.434,2.204278212
4.436,2.400102965
4.438,2.440899789
4.44,2.481696612
4.442,2.653043271
4.444,2.734636918
4.446,2.873346118
4.448,2.914142941
4.45,2.693840094
4.452,2.54697153
4.454,2.236915671
4.456,2.457218518
4.458,2.506174706
4.46,2.595927718
4.462,2.775433741
4.464,2.82438993
4.466,3.061011506
4.468,2.9467804
4.47,2.742796283
4.472,2.644883906
4.474,2.334828047
4.476,2.587768353
4.478,2.636724542
4.48,2.68568073
4.482,2.82438993
4.484,2.840708659
4.486,3.052852141
4.488,3.003895953
4.49,2.816230565
4.492,2.54697153
4.494,2.220596942
4.496,2.54697153
4.498,2.595927718
4.5,2.734636918
4.502,2.775433741
4.504,2.644883906
4.506,2.914142941
4.508,2.873346118
4.51,2.661202636
4.512,2.449059153
4.514,2.187959483
4.516,2.514334071
4.518,2.5306528
4.52,2.5306528
4.522,2.669362
4.524,2.669362
4.526,2.905983577
4.528,2.82438993
4.53,2.612246447
4.532,2.302190589
4.534,2.139003295
4.536,2.432740424
4.538,2.359306142
4.54,2.498015342
4.542,2.587768353
4.544,2.653043271
4.546,2.881505483
4.548,2.783593106
4.55,2.563290259
4.552,2.277712495
4.554,2.163481389
4.556,2.375624871
4.558,2.326668683
4.56,2.432740424
4.562,2.661202636
4.564,2.653043271
4.566,2.881505483
4.568,2.710158824
4.57,2.498015342
4.572,2.220596942
4.574,2.147162659
4.576,2.163481389
4.578,2.179800118
4.58,2.245075036
4.582,2.367465506
4.584,2.538812165
4.586,2.783593106
4.588,2.669362
4.59,2.734636918
4.592,2.571449624
4.594,2.857027389
4.596,3.2241988
4.598,3.468979741
4.6,2.2532344
4.602,2.302190589
4.604,2.302190589
4.606,2.285871859
4.608,2.342987412
4.61,2.465377883
4.612,2.538812165
4.614,2.726477553
4.616,2.514334071
4.618,2.40826233
4.62,2.098206471
4.622,2.277712495
4.624,2.318509318
4.626,2.367465506
4.628,2.440899789
4.63,2.604087083
4.632,2.68568073
4.634,2.8080712
4.636,2.612246447
4.638,2.440899789
4.64,2.163481389
4.642,2.3919436
4.644,2.3919436
4.646,2.40826233
4.648,2.522493436
4.65,2.612246447
4.652,2.783593106
4.654,2.873346118
4.656,2.628565177
4.658,2.538812165
4.66,2.228756306
4.662,2.302190589
4.664,2.440899789
4.666,2.522493436
4.668,2.522493436
4.67,2.644883906
4.672,2.848868024
4.674,2.857027389
4.676,2.595927718
4.678,2.424581059
4.68,2.065569012
4.682,2.367465506
4.684,2.440899789
4.686,2.489855977
4.688,2.604087083
4.69,2.693840094
4.692,2.938621036
4.694,2.922302306
4.696,2.750955647
4.698,2.383784236
4.7,2.1145252
4.702,2.342987412
4.704,2.465377883
4.706,2.440899789
4.708,2.653043271
4.71,2.693840094
4.712,2.922302306
4.714,2.865186753
4.716,2.759115012
4.718,2.498015342
4.72,2.236915671
4.722,2.473537247
4.724,2.473537247
4.726,2.579608989
4.728,2.669362
4.73,2.783593106
4.732,2.914142941
4.734,2.938621036
4.736,2.759115012
4.738,2.571449624
4.74,2.26955313
4.742,2.5306528
4.744,2.595927718
4.746,2.595927718
4.748,2.742796283
4.75,2.759115012
4.752,2.979417859
4.754,2.938621036
4.756,2.82438993
4.758,2.538812165
4.76,2.342987412
4.762,2.571449624
4.764,2.710158824
4.766,2.767274377
4.768,2.857027389
4.77,2.897824212
4.772,3.150764518
4.774,3.036533412
4.776,2.840708659
4.778,2.579608989
4.78,2.40826233
4.782,2.742796283
4.784,2.775433741
4.786,2.865186753
4.788,3.020214683
4.79,2.9467804
4.792,3.256836259
4.794,3.216039436
4.796,3.036533412
4.798,2.734636918
4.8,2.563290259
4.802,2.8080712
4.804,2.848868024
4.806,2.905983577
4.808,2.96309913
4.81,3.0854896
4.812,3.37922673
4.814,3.2241988
4.816,3.003895953
4.818,2.799911836
4.82,2.742796283
4.822,2.889664847
4.824,2.897824212
4.826,2.987577224
4.828,3.109967694
4.83,3.134445788
4.832,3.362908
4.834,3.2241988
4.836,3.069170871
4.838,2.693840094
4.84,2.701999459
4.842,2.783593106
4.844,2.750955647
4.846,2.865186753
4.848,2.914142941
4.85,2.897824212
4.852,3.175242612
4.854,2.979417859
4.856,2.873346118
4.858,2.457218518
4.86,2.449059153
4.862,2.620405812
4.864,2.579608989
4.866,2.669362
4.868,2.791752471
4.87,2.783593106
4.872,2.930461671
4.874,2.791752471
4.876,2.661202636
4.878,2.310349953
4.88,2.367465506
4.882,2.514334071
4.884,2.522493436
4.886,2.644883906
4.888,2.734636918
4.89,2.767274377
4.892,2.938621036
4.894,2.644883906
4.896,2.563290259
4.898,2.310349953
4.9,2.302190589
4.902,2.40826233
4.904,2.424581059
4.906,2.449059153
4.908,2.653043271
4.91,2.693840094
4.912,2.889664847
4.914,2.718318189
4.916,2.587768353
4.918,2.26955313
4.92,2.40826233
4.922,2.514334071
4.924,2.481696612
4.926,2.473537247
4.928,2.68568073
4.93,2.767274377
4.932,2.873346118
4.934,2.718318189
4.936,2.563290259
4.938,2.220596942
4.94,2.400102965
4.942,2.506174706
4.944,2.465377883
4.946,2.636724542
4.948,2.710158824
4.95,2.857027389
4.952,2.987577224
4.954,2.636724542
4.956,2.440899789
4.958,2.139003295
4.96,2.351146777
4.962,2.473537247
4.964,2.424581059
4.966,2.54697153
4.968,2.587768353
4.97,2.791752471
4.972,2.840708659
4.974,2.775433741
4.976,2.489855977
4.978,2.139003295
4.98,2.367465506
4.982,2.40826233
4.984,2.432740424
4.986,2.571449624
4.988,2.669362
4.99,2.905983577
4.992,2.759115012
4.994,2.636724542
4.996,2.400102965
4.998,2.1145252
5,2.318509318
5.002,2.334828047
5.004,2.465377883
5.006,2.571449624
5.008,2.653043271
5.01,2.8080712
5.012,2.775433741
5.014,2.5306528
5.016,2.310349953
5.018,2.081887742
5.02,2.318509318
5.022,2.40826233
5.024,2.440899789
5.026,2.555130894
5.028,2.628565177
5.03,2.8080712
5.032,2.8080712
5.034,2.595927718
5.036,2.318509318
5.038,2.122684565
5.04,2.342987412
5.042,2.318509318
5.044,2.489855977
5.046,2.677521365
5.048,2.612246447
5.05,2.889664847
5.052,2.759115012
5.054,2.68568073
5.056,2.375624871
5.058,2.073728377
5.06,2.424581059
5.062,2.416421694
5.064,2.359306142
5.066,2.5306528
5.068,2.571449624
5.07,2.840708659
5.072,2.726477553
5.074,2.571449624
5.076,2.310349953
5.078,2.090047106
5.08,2.294031224
5.082,2.302190589
5.084,2.416421694
5.086,2.604087083
5.088,2.595927718
5.09,2.767274377
5.092,2.759115012
5.094,2.489855977
5.096,2.204278212
5.098,2.032931553
5.1,2.342987412
5.102,2.359306142
5.104,2.400102965
5.106,2.612246447
5.108,2.555130894
5.11,2.82438993
5.112,2.750955647
5.114,2.579608989
5.116,2.318509318
5.118,2.1145252
5.12,2.285871859
5.122,2.236915671
5.124,2.440899789
5.126,2.587768353
5.128,2.440899789
5.13,2.742796283
5.132,2.68568073
5.134,2.538812165
5.136,2.179800118
5.138,2.155322024
5.14,2.26955313
5.142,2.261393765
5.144,2.375624871
5.146,2.506174706
5.148,2.498015342
5.15,2.710158824
5.152,2.604087083
5.154,2.465377883
5.156,2.13084393
5.158,2.204278212
5.16,2.2532344
5.162,2.302190589
5.164,2.481696612
5.166,2.54697153
5.168,2.465377883
5.17,2.68568073
5.172,2.612246447
5.174,2.440899789
5.176,2.1145252
5.178,2.122684565
5.18,2.294031224
5.182,2.294031224
5.184,2.26955313
5.186,2.424581059
5.188,2.522493436
5.19,2.661202636
5.192,2.449059153
5.194,2.522493436
5.196,2.073728377
5.198,2.1145252
5.2,2.179800118
5.202,2.171640753
5.204,2.351146777
5.206,2.432740424
5.208,2.54697153
5.21,2.677521365
5.212,2.473537247
5.214,2.351146777
5.216,1.926859812
5.218,2.147162659
5.22,2.204278212
5.222,2.220596942
5.224,2.359306142
5.226,2.473537247
5.228,2.538812165
5.23,2.644883906
5.232,2.440899789
5.234,2.351146777
5.236,2.008453459
5.238,2.106365836
5.24,2.032931553
5.242,2.163481389
5.244,2.359306142
5.246,2.432740424
5.248,2.628565177
5.25,2.595927718
5.252,2.538812165
5.254,2.294031224
5.256,1.951337906
5.258,2.1145252
5.26,2.179800118
5.262,2.204278212
5.264,2.40826233
5.266,2.449059153
5.268,2.579608989
5.27,2.669362
5.272,2.498015342
5.274,2.245075036
5.276,1.975816
5.278,2.2532344
5.28,2.334828047
5.282,2.302190589
5.284,2.465377883
5.286,2.538812165
5.288,2.767274377
5.29,2.701999459
5.292,2.661202636
5.294,2.318509318
5.296,2.057409647
5.298,2.318509318
5.3,2.375624871
5.302,2.342987412
5.304,2.440899789
5.306,2.571449624
5.308,2.8080712
5.31,2.726477553
5.312,2.555130894
5.314,2.351146777
5.316,2.081887742
5.318,2.228756306
5.32,2.351146777
5.322,2.3919436
5.324,2.571449624
5.326,2.54697153
5.328,2.759115012
5.33,2.677521365
5.332,2.5306528
5.334,2.26955313
5.336,1.845266165
5.338,2.212437577
5.34,2.196118847
5.342,2.204278212
5.344,2.359306142
5.346,2.3919436
5.348,2.620405812
5.35,2.506174706
5.352,2.367465506
5.354,2.13084393
5.356,1.861584895
5.358,2.081887742
5.36,2.090047106
5.362,2.179800118
5.364,2.285871859
5.366,2.277712495
5.368,2.579608989
5.37,2.506174706
5.372,2.367465506
5.374,2.000294095
5.376,1.85342553
5.378,2.098206471
5.38,2.057409647
5.382,2.171640753
5.384,2.310349953
5.386,2.245075036
5.388,2.587768353
5.39,2.473537247
5.392,2.277712495
5.394,1.902381718
5.396,1.747353789
5.398,1.943178542
5.4,1.845266165
5.402,1.935019177
5.404,2.049250283
5.406,2.13084393
5.408,2.424581059
5.41,2.424581059
5.412,2.294031224
5.414,2.171640753
5.416,2.261393765
5.418,2.653043271
5.42,2.987577224
5.422,3.371067365
5.424,3.713760683
5.426,3.9177448
5.428,4.325713035
5.43,4.227800659
5.432,3.999338447
5.434,3.689282588
5.436,3.5016172
5.438,3.452661012
5.44,3.256836259
5.442,3.109967694
5.444,3.036533412
5.446,2.783593106
5.448,2.840708659
5.45,2.514334071
5.452,2.285871859
5.454,1.959497271
5.456,1.959497271
5.458,2.016612824
5.46,1.910541083
5.462,2.032931553
5.464,2.13084393
5.466,2.163481389
5.468,2.375624871
5.47,2.204278212
5.472,2.098206471
5.474,1.771831883
5.476,1.8371068
5.478,2.024772189
5.48,2.090047106
5.482,2.171640753
5.484,2.236915671
5.486,2.187959483
5.488,2.473537247
5.49,2.416421694
5.492,2.26955313
5.494,1.820788071
5.496,1.983975365
5.498,2.024772189
5.5,2.081887742
5.502,2.155322024
5.504,2.318509318
5.506,2.383784236
5.508,2.522493436
5.51,2.2532344
5.512,2.236915671
5.514,1.828947436
5.516,2.016612824
5.518,2.024772189
5.52,2.1145252
5.522,2.147162659
5.524,2.245075036
5.526,2.3919436
5.528,2.481696612
5.53,2.318509318
5.532,2.26955313
5.534,1.886062989
5.536,2.008453459
5.538,2.122684565
5.54,2.1145252
5.542,2.220596942
5.544,2.416421694
5.546,2.498015342
5.548,2.449059153
5.55,2.187959483
5.552,2.1145252
5.554,1.886062989
5.556,2.073728377
5.558,2.1145252
5.56,2.212437577
5.562,2.375624871
5.564,2.400102965
5.566,2.563290259
5.568,2.54697153
5.57,2.310349953
5.572,2.1145252
5.574,1.910541083
5.576,2.106365836
5.578,2.204278212
5.58,2.179800118
5.582,2.400102965
5.584,2.432740424
5.586,2.669362
5.588,2.579608989
5.59,2.359306142
5.592,2.1145252
5.594,1.869744259
5.596,2.147162659
5.598,2.171640753
5.6,2.318509318
5.602,2.473537247
5.604,2.440899789
5.606,2.669362
5.608,2.620405812
5.61,2.473537247
5.612,2.212437577
5.614,2.016612824
5.616,2.220596942
5.618,2.285871859
5.62,2.220596942
5.622,2.465377883
5.624,2.522493436
5.626,2.644883906
5.628,2.653043271
5.63,2.416421694
5.632,2.204278212
5.634,1.983975365
5.636,2.179800118
5.638,2.2532344
5.64,2.375624871
5.642,2.481696612
5.644,2.5306528
5.646,2.783593106
5.648,2.693840094
5.65,2.514334071
5.652,2.277712495
5.654,2.098206471
5.656,2.359306142
5.658,2.334828047
5.66,2.416421694
5.662,2.489855977
5.664,2.612246447
5.666,2.865186753
5.668,2.816230565
5.67,2.587768353
5.672,2.383784236
5.674,2.187959483
5.676,2.416421694
5.678,2.440899789
5.68,2.5306528
5.682,2.612246447
5.684,2.669362
5.686,2.905983577
5.688,2.799911836
5.69,2.595927718
5.692,2.285871859
5.694,2.024772189
5.696,2.294031224
5.698,2.351146777
5.7,2.457218518
5.702,2.612246447
5.704,2.595927718
5.706,2.693840094
5.708,2.571449624
5.71,2.416421694
5.712,2.13084393
5.714,1.959497271
5.716,2.171640753
5.718,2.171640753
5.72,2.163481389
5.722,2.334828047
5.724,2.318509318
5.726,2.612246447
5.728,2.440899789
5.73,2.2532344
5.732,1.902381718
5.734,1.869744259
5.736,2.000294095
5.738,2.073728377
5.74,2.187959483
5.742,2.334828047
5.744,2.294031224
5.746,2.522493436
5.748,2.326668683
5.75,2.236915671
5.752,1.869744259
5.754,1.828947436
5.756,1.959497271
5.758,2.057409647
5.76,2.147162659
5.762,2.220596942
5.764,2.334828047
5.766,2.416421694
5.768,2.318509318
5.77,2.2532344
5.772,1.894222353
5.774,1.877903624
5.776,2.032931553
5.778,2.106365836
5.78,2.057409647
5.782,2.212437577
5.784,2.294031224
5.786,2.465377883
5.788,2.359306142
5.79,2.236915671
5.792,1.869744259
5.794,1.959497271
5.796,2.073728377
5.798,2.049250283
5.8,2.106365836
5.802,2.318509318
5.804,2.359306142
5.806,2.481696612
5.808,2.294031224
5.81,2.220596942
5.812,1.894222353
5.814,1.902381718
5.816,2.016612824
5.818,2.024772189
5.82,2.155322024
5.822,2.334828047
5.824,2.367465506
5.826,2.449059153
5.828,2.302190589
5.83,2.245075036
5.832,1.820788071
5.834,2.008453459
5.836,2.081887742
5.838,2.139003295
5.84,2.179800118
5.842,2.294031224
5.844,2.449059153
5.846,2.595927718
5.848,2.383784236
5.85,2.2532344
5.852,1.918700448
5.854,2.081887742
5.856,2.122684565
5.858,2.171640753
5.86,2.245075036
5.862,2.351146777
5.864,2.5306528
5.866,2.54697153
5.868,2.342987412
5.87,2.187959483
5.872,1.951337906
5.874,2.081887742
5.876,2.081887742
5.878,2.13084393
5.88,2.432740424
5.882,2.424581059
5.884,2.555130894
5.886,2.5306528
5.888,2.40826233
5.89,2.236915671
5.892,1.99213473
5.894,2.155322024
5.896,2.179800118
5.898,2.171640753
5.9,2.359306142
5.902,2.465377883
5.904,2.587768353
5.906,2.555130894
5.908,2.367465506
5.91,2.13084393
5.912,1.910541083
5.914,2.155322024
5.916,2.13084393
5.918,2.187959483
5.92,2.342987412
5.922,2.359306142
5.924,2.661202636
5.926,2.612246447
5.928,2.375624871
5.93,2.171640753
5.932,1.763672518
5.934,2.106365836
5.936,2.090047106
5.938,2.179800118
5.94,2.294031224
5.942,2.351146777
5.944,2.628565177
5.946,2.563290259
5.948,2.367465506
5.95,2.122684565
5.952,1.886062989
5.954,2.122684565
5.956,2.049250283
5.958,2.334828047
5.96,2.277712495
5.962,2.310349953
5.964,2.595927718
5.966,2.54697153
5.968,2.383784236
5.97,2.090047106
5.972,1.926859812
5.974,2.147162659
5.976,2.13084393
5.978,2.236915671
5.98,2.351146777
5.982,2.326668683
5.984,2.620405812
5.986,2.538812165
5.988,2.359306142
5.99,2.065569012
5.992,1.886062989
5.994,2.187959483
5.996,2.098206471
5.998,2.245075036
6,2.375624871
6.002,2.318509318
6.004,2.661202636
6.006,2.481696612
6.008,2.326668683
6.01,2.065569012
6.012,1.902381718
6.014,2.139003295
6.016,2.187959483
6.018,2.302190589
6.02,2.367465506
6.022,2.400102965
6.024,2.677521365
6.026,2.563290259
6.028,2.3919436
6.03,2.106365836
6.032,2.000294095
6.034,2.212437577
6.036,2.236915671
6.038,2.261393765
6.04,2.498015342
6.042,2.457218518
6.044,2.669362
6.046,2.579608989
6.048,2.457218518
6.05,2.171640753
6.052,2.098206471
6.054,2.326668683
6.056,2.285871859
6.058,2.285871859
6.06,2.498015342
6.062,2.555130894
6.064,2.8080712
6.066,2.628565177
6.068,2.563290259
6.07,2.236915671
6.072,2.204278212
6.074,2.367465506
6.076,2.432740424
6.078,2.449059153
6.08,2.5306528
6.082,2.734636918
6.084,2.897824212
6.086,2.742796283
6.088,2.701999459
6.09,2.163481389
6.092,2.245075036
6.094,2.302190589
6.096,2.334828047
6.098,2.473537247
6.1,2.612246447
6.102,2.68568073
6.104,2.865186753
6.106,2.68568073
6.108,2.473537247
6.11,2.122684565
6.112,2.228756306
6.114,2.302190589
6.116,2.236915671
6.118,2.3919436
6.12,2.416421694
6.122,2.54697153
6.124,2.571449624
6.126,2.416421694
6.128,2.310349953
6.13,1.918700448
6.132,2.139003295
6.134,2.163481389
6.136,2.147162659
6.138,2.220596942
6.14,2.383784236
6.142,2.506174706
6.144,2.506174706
6.146,2.498015342
6.148,2.285871859
6.15,1.967656636
6.152,2.057409647
6.154,2.155322024
6.156,2.220596942
6.158,2.359306142
6.16,2.40826233
6.162,2.555130894
6.164,2.612246447
6.166,2.383784236
6.168,2.196118847
6.17,1.910541083
6.172,2.098206471
6.174,2.13084393
6.176,2.163481389
6.178,2.285871859
6.18,2.302190589
6.182,2.449059153
6.184,2.465377883
6.186,2.122684565
6.188,1.926859812
6.19,1.641282048
6.192,1.935019177
6.194,2.024772189
6.196,2.090047106
6.198,2.465377883
6.2,2.636724542
6.202,3.134445788
6.204,3.330270541
6.206,3.403704824
6.208,3.37922673
6.21,3.403704824
6.212,3.819832424
6.214,3.909585435
6.216,3.909585435
6.218,4.040135271
6.22,3.974860353
6.222,4.048294635
6.224,3.697441953
6.226,3.411864188
6.228,2.930461671
6.23,2.522493436
6.232,2.481696612
6.234,2.261393765
6.236,2.236915671
6.238,2.351146777
6.24,2.440899789
6.242,2.653043271
6.244,2.424581059
6.246,2.204278212
6.248,1.894222353
6.25,1.641282048
6.252,1.910541083
6.254,1.975816
6.256,2.081887742
6.258,2.302190589
6.26,2.310349953
6.262,2.620405812
6.264,2.481696612
6.266,2.367465506
6.268,2.065569012
6.27,1.845266165
6.272,2.122684565
6.274,2.196118847
6.276,2.236915671
6.278,2.351146777
6.28,2.416421694
6.282,2.68568073
6.284,2.587768353
6.286,2.375624871
6.288,2.106365836
6.29,1.918700448
6.292,2.171640753
6.294,2.147162659
6.296,2.26955313
6.298,2.465377883
6.3,2.449059153
6.302,2.701999459
6.304,2.587768353
6.306,2.457218518
6.308,2.049250283
6.31,2.049250283
6.312,2.196118847
6.314,2.318509318
6.316,2.245075036
6.318,2.498015342
6.32,2.506174706
6.322,2.759115012
6.324,2.661202636
6.326,2.514334071
6.328,2.212437577
6.33,2.106365836
6.332,2.342987412
6.334,2.310349953
6.336,2.40826233
6.338,2.432740424
6.34,2.473537247
6.342,2.799911836
6.344,2.677521365
6.346,2.538812165
6.348,2.228756306
6.35,2.26955313
6.352,2.375624871
6.354,2.342987412
6.356,2.489855977
6.358,2.669362
6.36,2.653043271
6.362,2.857027389
6.364,2.612246447
6.366,2.628565177
6.368,2.228756306
6.37,2.302190589
6.372,2.416421694
6.374,2.351146777
6.376,2.555130894
6.378,2.669362
6.38,2.791752471
6.382,2.905983577
6.384,2.669362
6.386,2.555130894
6.388,2.155322024
6.39,2.236915671
6.392,2.424581059
6.394,2.481696612
6.396,2.620405812
6.398,2.775433741
6.4,2.82438993
6.402,3.003895953
6.404,2.8080712
6.406,2.693840094
6.408,2.26955313
6.41,2.400102965
6.412,2.514334071
6.414,2.604087083
6.416,2.693840094
6.418,2.873346118
6.42,3.061011506
6.422,3.10180833
6.424,2.848868024
6.426,2.783593106
6.428,2.522493436
6.43,2.718318189
6.432,2.726477553
6.434,2.840708659
6.436,2.881505483
6.438,2.897824212
6.44,3.061011506
6.442,3.232358165
6.444,2.995736589
6.446,2.832549294
6.448,2.498015342
6.45,2.701999459
6.452,2.799911836
6.454,2.881505483
6.456,2.9467804
6.458,3.012055318
6.46,3.281314353
6.462,3.444501647
6.464,3.028374047
6.466,2.840708659
6.468,2.571449624
6.47,2.653043271
6.472,2.832549294
6.474,2.775433741
6.476,2.971258494
6.478,2.873346118
6.48,3.191561341
6.482,3.126286424
6.484,2.905983577
6.486,2.612246447
6.488,2.367465506
6.49,2.54697153
6.492,2.498015342
6.494,2.514334071
6.496,2.693840094
6.498,2.799911836
6.5,2.9467804
6.502,2.82438993
6.504,2.710158824
6.506,2.424581059
6.508,2.098206471
6.51,2.351146777
6.512,2.359306142
6.514,2.473537247
6.516,2.620405812
6.518,2.604087083
6.52,2.840708659
6.522,2.759115012
6.524,2.571449624
6.526,2.334828047
6.528,2.057409647
6.53,2.318509318
6.532,2.318509318
6.534,2.383784236
6.536,2.498015342
6.538,2.538812165
6.54,2.799911836
6.542,2.750955647
6.544,2.54697153
6.546,2.285871859
6.548,2.000294095
6.55,2.318509318
6.552,2.277712495
6.554,2.375624871
6.556,2.563290259
6.558,2.604087083
6.56,2.832549294
6.562,2.734636918
6.564,2.604087083
6.566,2.261393765
6.568,2.016612824
6.57,2.228756306
6.572,2.334828047
6.574,2.334828047
6.576,2.489855977
6.578,2.538812165
6.58,2.8080712
6.582,2.742796283
6.584,2.506174706
6.586,2.26955313
6.588,2.032931553
6.59,2.2532344
6.592,2.171640753
6.594,2.563290259
6.596,2.571449624
6.598,2.644883906
6.6,2.889664847
6.602,2.701999459
6.604,2.538812165
6.606,2.220596942
6.608,2.057409647
6.61,2.351146777
6.612,2.383784236
6.614,2.40826233
6.616,2.522493436
6.618,2.644883906
6.62,2.954939765
6.622,2.693840094
6.624,2.587768353
6.626,2.302190589
6.628,2.277712495
6.63,2.400102965
6.632,2.375624871
6.634,2.489855977
6.636,2.636724542
6.638,2.612246447
6.64,2.905983577
6.642,2.767274377
6.644,2.579608989
6.646,2.187959483
6.648,2.318509318
6.65,2.440899789
6.652,2.449059153
6.654,2.571449624
6.656,2.669362
6.658,2.710158824
6.66,2.971258494
6.662,2.840708659
6.664,2.612246447
6.666,2.318509318
6.668,2.294031224
6.67,2.40826233
6.672,2.5306528
6.674,2.571449624
6.676,2.669362
6.678,2.791752471
6.68,3.020214683
6.682,2.832549294
6.684,2.669362
6.686,2.245075036
6.688,2.3919436
6.69,2.432740424
6.692,2.457218518
6.694,2.644883906
6.696,2.9467804
6.698,2.905983577
6.7,3.012055318
6.702,2.669362
6.704,2.791752471
6.706,2.351146777
6.708,2.457218518
6.71,2.555130894
6.712,2.612246447
6.714,2.68568073
6.716,2.857027389
6.718,3.052852141
6.72,3.069170871
6.722,2.767274377
6.724,2.644883906
6.726,2.318509318
6.728,2.506174706
6.73,2.579608989
6.732,2.661202636
6.734,2.718318189
6.736,2.8080712
6.738,2.979417859
6.74,3.028374047
6.742,2.791752471
6.744,2.636724542
6.746,2.318509318
6.748,2.449059153
6.75,2.571449624
6.752,2.612246447
6.754,2.783593106
6.756,2.832549294
6.758,3.028374047
6.76,3.036533412
6.762,2.799911836
6.764,2.636724542
6.766,2.326668683
6.768,2.5306528
6.77,2.54697153
6.772,2.628565177
6.774,2.8080712
6.776,2.783593106
6.778,2.987577224
6.78,2.971258494
6.782,2.775433741
6.784,2.555130894
6.786,2.277712495
6.788,2.54697153
6.79,2.571449624
6.792,2.677521365
6.794,2.799911836
6.796,2.82438993
6.798,3.012055318
6.8,2.995736589
6.802,2.791752471
6.804,2.465377883
6.806,2.204278212
6.808,2.555130894
6.81,2.628565177
6.812,2.677521365
6.814,2.832549294
6.816,2.938621036
6.818,3.061011506
6.82,3.020214683
6.822,2.775433741
6.824,2.563290259
6.826,2.351146777
6.828,2.555130894
6.83,2.571449624
6.832,2.710158824
6.834,2.791752471
6.836,2.8080712
6.838,3.061011506
6.84,2.938621036
6.842,2.881505483
6.844,2.579608989
6.846,2.294031224
6.848,2.644883906
6.85,2.555130894
6.852,2.726477553
6.854,2.799911836
6.856,2.759115012
6.858,3.069170871
6.86,3.061011506
6.862,2.865186753
6.864,2.522493436
6.866,2.334828047
6.868,2.54697153
6.87,2.563290259
6.872,2.693840094
6.874,2.82438993
6.876,2.775433741
6.878,3.158923883
6.88,3.044692777
6.882,2.848868024
6.884,2.481696612
6.886,2.334828047
6.888,2.68568073
6.89,2.644883906
6.892,2.701999459
6.894,2.889664847
6.896,2.914142941
6.898,3.248676894
6.9,3.093648965
6.902,2.922302306
6.904,2.563290259
6.906,2.595927718
6.908,2.791752471
6.91,2.750955647
6.912,2.791752471
6.914,2.922302306
6.916,2.930461671
6.918,3.232358165
6.92,3.126286424
6.922,3.003895953
6.924,2.587768353
6.926,2.595927718
6.928,2.816230565
6.93,2.775433741
6.932,2.881505483
6.934,3.003895953
6.936,3.044692777
6.938,3.281314353
6.94,2.987577224
6.942,2.881505483
6.944,2.571449624
6.946,2.571449624
6.948,2.767274377
6.95,2.799911836
6.952,2.82438993
6.954,2.938621036
6.956,2.971258494
6.958,3.134445788
6.96,3.069170871
6.962,2.840708659
6.964,2.498015342
6.966,2.498015342
6.968,2.750955647
6.97,2.677521365
6.972,2.669362
6.974,2.9467804
6.976,3.012055318
6.978,3.118127059
6.98,2.96309913
6.982,2.897824212
6.984,2.489855977
6.986,2.555130894
6.988,2.693840094
6.99,2.693840094
6.992,2.759115012
6.994,2.865186753
6.996,2.873346118
6.998,3.028374047
7,2.857027389
7.002,2.8080712
7.004,2.359306142
7.006,2.457218518
7.008,2.5306528
7.01,2.595927718
7.012,2.734636918
7.014,2.799911836
7.016,2.930461671
7.018,2.930461671
7.02,2.701999459
7.022,2.506174706
7.024,2.155322024
7.026,2.375624871
7.028,2.424581059
7.03,2.628565177
7.032,2.865186753
7.034,3.10180833
7.036,3.526095294
7.038,3.7790356
7.04,3.844310518
7.042,3.852469882
7.044,3.689282588
7.046,4.129888282
7.048,4.244119388
7.05,4.227800659
7.052,4.366509859
7.054,4.211481929
7.056,4.317553671
7.058,4.170685106
7.06,3.811673059
7.062,3.346589271
7.064,2.865186753
7.066,2.897824212
7.068,2.799911836
7.07,2.799911836
7.072,2.799911836
7.074,2.840708659
7.076,2.922302306
7.078,2.922302306
7.08,2.68568073
7.082,2.498015342
7.084,2.13084393
7.086,2.26955313
7.088,2.40826233
7.09,2.506174706
7.092,2.726477553
7.094,2.791752471
7.096,3.003895953
7.098,2.938621036
7.1,2.783593106
7.102,2.54697153
7.104,2.342987412
7.106,2.555130894
7.108,2.620405812
7.11,2.636724542
7.112,2.799911836
7.114,2.848868024
7.116,3.069170871
7.118,2.922302306
7.12,2.905983577
7.122,2.636724542
7.124,2.310349953
7.126,2.587768353
7.128,2.563290259
7.13,2.68568073
7.132,2.791752471
7.134,2.873346118
7.136,3.036533412
7.138,3.077330236
7.14,2.865186753
7.142,2.506174706
7.144,2.318509318
7.146,2.677521365
7.148,2.604087083
7.15,2.742796283
7.152,2.865186753
7.154,2.930461671
7.156,3.093648965
7.158,2.96309913
7.16,2.783593106
7.162,2.506174706
7.164,2.326668683
7.166,2.677521365
7.168,2.68568073
7.17,2.710158824
7.172,2.914142941
7.174,2.922302306
7.176,3.158923883
7.178,3.069170871
7.18,2.840708659
7.182,2.587768353
7.184,2.416421694
7.186,2.701999459
7.188,2.742796283
7.19,2.8080712
7.192,2.930461671
7.194,2.96309913
7.196,3.24051753
7.198,3.142605153
7.2,3.036533412
7.202,2.612246447
7.204,2.571449624
7.206,2.791752471
7.208,2.799911836
7.21,2.873346118
7.212,2.979417859
7.214,3.012055318
7.216,3.346589271
7.218,3.207880071
7.22,3.052852141
7.222,2.661202636
7.224,2.718318189
7.226,2.865186753
7.228,2.889664847
7.23,3.028374047
7.232,3.126286424
7.234,3.2241988
7.236,3.305792447
7.238,3.207880071
7.24,3.109967694
7.242,2.857027389
7.244,2.857027389
7.246,3.012055318
7.248,3.020214683
7.25,3.061011506
7.252,3.289473718
7.254,3.37922673
7.256,3.615848306
7.258,3.346589271
7.26,3.305792447
7.262,2.905983577
7.264,3.10180833
7.266,3.126286424
7.268,3.191561341
7.27,3.281314353
7.272,3.362908
7.274,3.468979741
7.276,3.672963859
7.278,3.460820377
7.28,3.362908
7.282,3.126286424
7.284,3.191561341
7.286,3.232358165
7.288,3.322111177
7.29,3.362908
7.292,3.460820377
7.294,3.566892118
7.296,3.713760683
7.298,3.509776565
7.3,3.346589271
7.302,2.9467804
7.304,3.134445788
7.306,3.183401977
7.308,3.273154988
7.31,3.273154988
7.312,3.362908
7.314,3.477139106
7.316,3.542414024
7.318,3.330270541
7.32,3.175242612
7.322,2.767274377
7.324,2.881505483
7.326,3.003895953
7.328,3.036533412
7.33,3.142605153
7.332,3.232358165
7.334,3.264995624
7.336,3.411864188
7.338,3.142605153
7.34,2.938621036
7.342,2.677521365
7.344,2.816230565
7.346,2.857027389
7.348,2.799911836
7.35,2.914142941
7.352,3.061011506
7.354,3.289473718
7.356,3.24051753
7.358,3.012055318
7.36,2.816230565
7.362,2.481696612
7.364,2.767274377
7.366,2.816230565
7.368,2.930461671
7.37,3.061011506
7.372,3.069170871
7.374,3.289473718
7.376,3.216039436
7.378,2.971258494
7.38,2.775433741
7.382,2.522493436
7.384,2.8080712
7.386,2.816230565
7.388,2.857027389
7.39,3.036533412
7.392,3.020214683
7.394,3.216039436
7.396,3.273154988
7.398,3.167083247
7.4,2.905983577
7.402,2.498015342
7.404,2.767274377
7.406,2.857027389
7.408,2.857027389
7.41,3.028374047
7.412,3.061011506
7.414,3.330270541
7.416,3.248676894
7.418,3.069170871
7.42,2.832549294
7.422,2.628565177
7.424,2.8080712
7.426,2.832549294
7.428,2.930461671
7.43,3.10180833
7.432,3.118127059
7.434,3.371067365
7.436,3.264995624
7.438,3.077330236
7.44,2.8080712
7.442,2.522493436
7.444,2.848868024
7.446,2.897824212
7.448,2.96309913
7.45,3.044692777
7.452,3.0854896
7.454,3.428182918
7.456,3.199720706
7.458,3.036533412
7.46,2.799911836
7.462,2.571449624
7.464,2.816230565
7.466,2.857027389
7.468,3.003895953
7.47,2.995736589
7.472,3.044692777
7.474,3.313951812
7.476,3.273154988
7.478,3.020214683
7.48,2.726477553
7.482,2.653043271
7.484,2.897824212
7.486,2.840708659
7.488,2.881505483
7.49,3.0854896
7.492,3.012055318
7.494,3.5016172
7.496,3.248676894
7.498,3.052852141
7.5,2.750955647
7.502,2.693840094
7.504,2.96309913
7.506,2.954939765
7.508,2.995736589
7.51,3.093648965
7.512,3.142605153
7.514,3.444501647
7.516,3.264995624
7.518,3.167083247
7.52,2.816230565
7.522,2.881505483
7.524,2.96309913
7.526,2.848868024
7.528,3.012055318
7.53,3.191561341
7.532,3.191561341
7.534,3.477139106
7.536,3.207880071
7.538,3.118127059
7.54,2.759115012
7.542,2.783593106
7.544,2.979417859
7.546,2.96309913
7.548,3.028374047
7.55,3.134445788
7.552,3.191561341
7.554,3.37922673
7.556,3.24051753
7.558,3.158923883
7.56,2.710158824
7.562,2.734636918
7.564,2.905983577
7.566,2.979417859
7.568,3.077330236
7.57,3.175242612
7.572,3.199720706
7.574,3.428182918
7.576,3.273154988
7.578,3.134445788
7.58,2.734636918
7.582,2.889664847
7.584,2.922302306
7.586,2.9467804
7.588,2.9467804
7.59,3.232358165
7.592,3.371067365
7.594,3.452661012
7.596,3.273154988
7.598,3.216039436
7.6,2.783593106
7.602,2.938621036
7.604,2.9467804
7.606,3.036533412
7.608,3.183401977
7.61,3.24051753
7.612,3.330270541
7.614,3.452661012
7.616,3.191561341
7.618,3.118127059
7.62,2.82438993
7.622,2.954939765
7.624,3.077330236
7.626,3.061011506
7.628,3.216039436
7.63,3.305792447
7.632,3.37922673
7.634,3.485298471
7.636,3.297633083
7.638,3.142605153
7.64,2.857027389
7.642,2.995736589
7.644,2.979417859
7.646,3.126286424
7.648,3.322111177
7.65,3.313951812
7.652,3.485298471
7.654,3.493457835
7.656,3.371067365
7.658,3.10180833
7.66,2.742796283
7.662,3.036533412
7.664,3.134445788
7.666,3.273154988
7.668,3.371067365
7.67,3.387386094
7.672,3.51793593
7.674,3.575051483
7.676,3.403704824
7.678,3.191561341
7.68,2.9467804
7.682,3.158923883
7.684,3.199720706
7.686,3.24051753
7.688,3.387386094
7.69,3.468979741
7.692,3.664804494
7.694,3.664804494
7.696,3.468979741
7.698,3.199720706
7.7,2.938621036
7.702,3.207880071
7.704,3.248676894
7.706,3.281314353
7.708,3.411864188
7.71,3.403704824
7.712,3.664804494
7.714,3.583210847
7.716,3.420023553
7.718,3.126286424
7.72,2.848868024
7.722,3.134445788
7.724,3.142605153
7.726,3.24051753
7.728,3.297633083
7.73,3.289473718
7.732,3.566892118
7.734,3.493457835
7.736,3.273154988
7.738,2.979417859
7.74,2.799911836
7.742,3.077330236
7.744,3.077330236
7.746,3.207880071
7.748,3.207880071
7.75,3.330270541
7.752,3.591370212
7.754,3.51793593
7.756,3.289473718
7.758,3.020214683
7.76,2.750955647
7.762,3.044692777
7.764,3.028374047
7.766,3.109967694
7.768,3.37922673
7.77,3.256836259
7.772,3.607688941
7.774,3.436342283
7.776,3.232358165
7.778,2.922302306
7.78,2.799911836
7.782,2.995736589
7.784,3.044692777
7.786,3.052852141
7.788,3.167083247
7.79,3.142605153
7.792,3.452661012
7.794,3.387386094
7.796,3.10180833
7.798,2.628565177
7.8,2.775433741
7.802,2.857027389
7.804,3.012055318
7.806,3.248676894
7.808,3.387386094
7.81,3.583210847
7.812,4.138047647
7.814,4.276756847
7.816,4.366509859
7.818,4.293075577
7.82,4.399147318
7.822,4.660246988
7.824,4.603131435
7.826,4.701043812
7.828,4.733681271
7.83,4.75
7.832,4.733681271
7.834,4.448103506
7.836,4.07277273
7.838,3.583210847
7.84,3.436342283
7.842,3.297633083
7.844,3.10180833
7.846,3.150764518
7.848,3.305792447
7.85,3.289473718
7.852,3.5016172
7.854,3.191561341
7.856,3.052852141
7.858,2.742796283
7.86,2.767274377
7.862,2.922302306
7.864,2.914142941
7.866,2.9467804
7.868,3.158923883
7.87,3.216039436
7.872,3.403704824
7.874,3.24051753
7.876,3.2241988
7.878,2.832549294
7.88,2.914142941
7.882,3.0854896
7.884,3.10180833
7.886,3.191561341
7.888,3.305792447
7.89,3.444501647
7.892,3.558732753
7.894,3.289473718
7.896,3.134445788
7.898,2.922302306
7.9,2.995736589
7.902,3.093648965
7.904,3.077330236
7.906,3.142605153
7.908,3.297633083
7.91,3.550573388
7.912,3.509776565
7.914,3.313951812
7.916,3.191561341
7.918,2.873346118
7.92,3.028374047
7.922,3.0854896
7.924,3.199720706
7.926,3.232358165
7.928,3.305792447
7.93,3.51793593
7.932,3.615848306
7.934,3.411864188
7.936,3.150764518
7.938,2.922302306
7.94,3.069170871
7.942,3.167083247
7.944,3.150764518
7.946,3.330270541
7.948,3.354748636
7.95,3.558732753
7.952,3.51793593
7.954,3.371067365
7.956,3.24051753
7.958,2.971258494
7.96,3.142605153
7.962,3.199720706
7.964,3.167083247
7.966,3.313951812
7.968,3.371067365
7.97,3.624007671
7.972,3.648485765
7.974,3.468979741
7.976,3.183401977
7.978,3.020214683
7.98,3.24051753
7.982,3.158923883
7.984,3.2241988
7.986,3.452661012
7.988,3.395545459
7.99,3.689282588
7.992,3.705601318
7.994,3.403704824
7.996,3.134445788
7.998,2.954939765
8,3.2241988
8.002,3.256836259
8.004,3.273154988
8.006,3.509776565
8.008,3.485298471
8.01,3.664804494
8.012,3.672963859
8.014,3.493457835
8.016,3.248676894
8.018,3.028374047
8.02,3.273154988
8.022,3.346589271
8.024,3.468979741
8.026,3.436342283
8.028,3.452661012
8.03,3.803513694
8.032,3.746398141
8.034,3.534254659
8.036,3.37922673
8.038,3.134445788
8.04,3.37922673
8.042,3.354748636
8.044,3.460820377
8.046,3.607688941
8.048,3.65664513
8.05,3.925904165
8.052,3.844310518
8.054,3.615848306
8.056,3.330270541
8.058,3.142605153
8.06,3.460820377
8.062,3.436342283
8.064,3.526095294
8.066,3.689282588
8.068,3.672963859
8.07,3.983019718
8.072,3.844310518
8.074,3.6403264
8.076,3.346589271
8.078,3.158923883
8.08,3.428182918
8.082,3.395545459
8.084,3.51793593
8.086,3.615848306
8.088,3.493457835
8.09,3.7790356
8.092,3.689282588
8.094,3.509776565
8.096,3.077330236
8.098,3.036533412
8.1,3.2241988
8.102,3.232358165
8.104,3.167083247
8.106,3.37922673
8.108,3.330270541
8.11,3.558732753
8.112,3.395545459
8.114,3.256836259
8.116,2.914142941
8.118,2.857027389
8.12,2.954939765
8.122,3.028374047
8.124,3.10180833
8.126,3.167083247
8.128,3.199720706
8.13,3.436342283
8.132,3.330270541
8.134,3.199720706
8.136,2.783593106
8.138,2.840708659
8.14,2.971258494
8.142,2.922302306
8.144,3.028374047
8.146,3.158923883
8.148,3.134445788
8.15,3.452661012
8.152,3.2241988
8.154,3.077330236
8.156,2.734636918
8.158,2.718318189
8.16,2.922302306
8.162,2.922302306
8.164,3.069170871
8.166,3.175242612
8.168,3.281314353
8.17,3.403704824
8.172,3.256836259
8.174,3.10180833
8.176,2.68568073
8.178,2.734636918
8.18,2.881505483
8.182,2.922302306
8.184,2.905983577
8.186,3.0854896
8.188,3.199720706
8.19,3.387386094
8.192,3.175242612
8.194,3.126286424
8.196,2.726477553
8.198,2.816230565
8.2,2.938621036
8.202,2.897824212
8.204,3.028374047
8.206,3.118127059
8.208,3.289473718
8.21,3.346589271
8.212,3.077330236
8.214,3.061011506
8.216,2.767274377
8.218,2.840708659
8.22,2.897824212
8.222,2.938621036
8.224,3.0854896
8.226,3.256836259
8.228,3.403704824
8.23,3.330270541
8.232,3.199720706
8.234,2.995736589
8.236,2.799911836
8.238,3.012055318
8.24,3.012055318
8.242,3.036533412
8.244,3.150764518
8.246,3.142605153
8.248,3.387386094
8.25,3.395545459
8.252,3.2241988
8.254,3.036533412
8.256,2.701999459
8.258,2.905983577
8.26,3.012055318
8.262,3.052852141
8.264,3.24051753
8.266,3.2241988
8.268,3.485298471
8.27,3.411864188
8.272,3.167083247
8.274,2.979417859
8.276,2.718318189
8.278,2.922302306
8.28,3.028374047
8.282,3.003895953
8.284,3.183401977
8.286,3.256836259
8.288,3.485298471
8.29,3.444501647
8.292,3.273154988
8.294,3.061011506
8.296,2.767274377
8.298,3.028374047
8.3,3.077330236
8.302,3.061011506
8.304,3.24051753
8.306,3.24051753
8.308,3.550573388
8.31,3.444501647
8.312,3.248676894
8.314,3.003895953
8.316,2.816230565
8.318,3.012055318
8.32,2.971258494
8.322,3.069170871
8.324,3.2241988
8.326,3.264995624
8.328,3.526095294
8.33,3.468979741
8.332,3.207880071
8.334,2.9467804
8.336,2.677521365
8.338,3.044692777
8.34,2.96309913
8.342,3.020214683
8.344,3.109967694
8.346,3.216039436
8.348,3.534254659
8.35,3.420023553
8.352,3.167083247
8.354,2.857027389
8.356,2.710158824
8.358,2.979417859
8.36,2.954939765
8.362,3.044692777
8.364,3.126286424
8.366,3.175242612
8.368,3.5016172
8.37,3.387386094
8.372,3.2241988
8.374,2.897824212
8.376,2.734636918
8.378,2.954939765
8.38,2.971258494
8.382,3.036533412
8.384,3.207880071
8.386,3.305792447
8.388,3.534254659
8.39,3.387386094
8.392,3.273154988
8.394,2.889664847
8.396,2.767274377
8.398,2.938621036
8.4,2.954939765
8.402,3.061011506
8.404,3.191561341
8.406,3.167083247
8.408,3.485298471
8.41,3.37922673
8.412,3.183401977
8.414,2.816230565
8.416,2.799911836
8.418,2.995736589
8.42,2.930461671
8.422,3.077330236
8.424,3.183401977
8.426,3.2241988
8.428,3.5016172
8.43,3.281314353
8.432,3.207880071
8.434,2.832549294
8.436,2.848868024
8.438,2.9467804
8.44,3.052852141
8.442,3.069170871
8.444,3.207880071
8.446,3.256836259
8.448,3.420023553
8.45,3.256836259
8.452,3.167083247
8.454,2.742796283
8.456,2.840708659
8.458,2.9467804
8.46,3.069170871
8.462,3.10180833
8.464,3.158923883
8.466,3.264995624
8.468,3.452661012
8.47,3.330270541
8.472,3.167083247
8.474,2.661202636
8.476,2.791752471
8.478,3.036533412
8.48,3.003895953
8.482,3.036533412
8.484,3.216039436
8.486,3.362908
8.488,3.420023553
8.49,3.126286424
8.492,3.0854896
8.494,2.718318189
8.496,2.881505483
8.498,2.9467804
8.5,3.020214683