Time (s),Signal (V)
0,1.825678443
0.002,1.690709755
0.004,1.525748026
0.006,1.675713235
0.008,2.020633213
0.01,2.470528837
0.012,2.245581025
0.014,2.395546233
0.016,2.215587984
0.018,2.170598421
0.02,1.540744547
0.022,1.420772381
0.024,1.495754985
0.026,1.765692359
0.028,2.065622776
0.03,2.380549712
0.032,2.425539275
0.034,2.560507962
0.036,2.33556015
0.038,2.350556671
0.04,1.735699318
0.042,1.495754985
0.044,1.375782818
0.046,1.480758464
0.048,1.900661047
0.05,2.410542754
0.052,2.905427941
0.054,2.830445337
0.056,2.590501004
0.058,2.455532317
0.06,1.96064713
0.062,1.540744547
0.064,1.900661047
0.066,1.990640171
0.068,2.245581025
0.07,2.425539275
0.072,2.725469691
0.074,2.605497525
0.076,2.410542754
0.078,2.245581025
0.08,1.915657567
0.082,1.630723672
0.084,1.615727151
0.086,1.825678443
0.088,2.200591463
0.09,2.590501004
0.092,2.770459253
0.094,2.965414024
0.096,2.575504483
0.098,2.095615817
0.1,1.810681922
0.102,1.915657567
0.104,1.765692359
0.106,2.215587984
0.108,2.320563629
0.11,2.485525358
0.112,2.620494045
0.114,2.530514921
0.116,2.470528837
0.118,2.980410545
0.12,2.560507962
0.122,2.095615817
0.124,1.660716714
0.126,2.260577546
0.128,2.665483608
0.13,3.160368794
0.132,3.460299211
0.134,2.860438378
0.136,2.755462733
0.138,2.5155184
0.14,2.020633213
0.142,1.975643651
0.144,2.245581025
0.146,2.33556015
0.148,2.785455774
0.15,3.145372274
0.152,3.310334003
0.154,3.220354878
0.156,3.44530269
0.158,2.950417503
0.16,2.650487087
0.162,2.605497525
0.164,2.785455774
0.166,2.860438378
0.168,3.490292252
0.17,3.670250502
0.172,3.970180918
0.174,4.090153084
0.176,3.565274856
0.178,2.920424462
0.18,2.89043142
0.182,3.100382711
0.184,3.535281815
0.186,3.775226148
0.188,4.045163522
0.19,3.685247023
0.192,3.460299211
0.194,3.64025746
0.196,3.580271377
0.198,3.220354878
0.2,3.190361836
0.202,3.235351398
0.204,3.340327044
0.206,3.160368794
0.208,3.700243543
0.21,3.910194835
0.212,4.345093938
0.214,4.150139168
0.216,3.805219189
0.218,3.07038967
0.22,3.145372274
0.222,2.905427941
0.224,3.145372274
0.226,3.385316607
0.228,3.805219189
0.23,3.775226148
0.232,3.64025746
0.234,3.355323565
0.236,3.235351398
0.238,2.905427941
0.24,2.980410545
0.242,2.320563629
0.244,2.230584504
0.246,2.365553192
0.248,2.725469691
0.25,2.920424462
0.252,3.325330523
0.254,2.800452295
0.256,2.635490566
0.258,2.380549712
0.26,2.230584504
0.262,2.245581025
0.264,2.1556019
0.266,2.215587984
0.268,2.635490566
0.27,2.905427941
0.272,2.725469691
0.274,2.605497525
0.276,2.740466212
0.278,2.470528837
0.28,2.050626255
0.282,1.735699318
0.284,1.96064713
0.286,2.230584504
0.288,2.530514921
0.29,2.875434899
0.292,2.935420982
0.294,2.425539275
0.296,2.350556671
0.298,1.885664526
0.3,1.735699318
0.302,1.855671484
0.304,1.96064713
0.306,2.035629734
0.308,2.425539275
0.31,2.755462733
0.312,2.845441857
0.314,2.665483608
0.316,2.680480129
0.318,2.500521879
0.32,2.080619296
0.322,2.035629734
0.324,2.245581025
0.326,2.065622776
0.328,2.410542754
0.33,2.380549712
0.332,2.650487087
0.334,2.635490566
0.336,2.050626255
0.338,1.660716714
0.34,1.825678443
0.342,1.690709755
0.344,1.900661047
0.346,2.275574067
0.348,2.425539275
0.35,2.755462733
0.352,3.205358357
0.354,2.830445337
0.356,2.275574067
0.358,1.840674963
0.36,1.570737589
0.362,1.630723672
0.364,2.245581025
0.366,2.080619296
0.368,2.695476649
0.37,2.725469691
0.372,2.635490566
0.374,2.320563629
0.376,2.245581025
0.378,2.125608859
0.38,1.795685401
0.382,1.58573411
0.384,1.765692359
0.386,2.020633213
0.388,2.71047317
0.39,2.770459253
0.392,2.905427941
0.394,2.500521879
0.396,2.350556671
0.398,2.050626255
0.4,1.675713235
0.402,1.765692359
0.404,1.870668005
0.406,2.095615817
0.408,2.590501004
0.41,3.010403586
0.412,2.530514921
0.414,2.635490566
0.416,2.245581025
0.418,2.14060538
0.42,2.125608859
0.422,1.930654088
0.424,1.705706276
0.426,2.230584504
0.428,2.455532317
0.43,2.545511441
0.432,2.785455774
0.434,2.725469691
0.436,2.080619296
0.438,1.705706276
0.44,1.675713235
0.442,1.510751506
0.444,1.690709755
0.446,2.005636692
0.448,2.71047317
0.45,2.845441857
0.452,2.590501004
0.454,2.545511441
0.456,2.125608859
0.458,1.765692359
0.46,1.120841965
0.462,1.840674963
0.464,2.470528837
0.466,1.96064713
0.468,2.230584504
0.47,2.470528837
0.472,3.235351398
0.474,2.530514921
0.476,2.380549712
0.478,1.40577586
0.48,1.345789777
0.482,2.33556015
0.484,1.810681922
0.486,2.245581025
0.488,3.055393149
0.49,2.650487087
0.492,3.055393149
0.494,2.320563629
0.496,2.050626255
0.498,2.080619296
0.5,1.900661047
0.502,1.96064713
0.504,1.645720193
0.506,2.14060538
0.508,2.740466212
0.51,2.860438378
0.512,2.665483608
0.514,2.440535796
0.516,1.990640171
0.518,1.765692359
0.52,1.765692359
0.522,1.885664526
0.524,2.200591463
0.526,2.545511441
0.528,2.920424462
0.53,2.860438378
0.532,2.800452295
0.534,2.230584504
0.536,1.795685401
0.538,1.900661047
0.54,1.930654088
0.542,2.305567108
0.544,2.125608859
0.546,2.455532317
0.548,2.770459253
0.55,2.89043142
0.552,2.560507962
0.554,2.290570588
0.556,1.855671484
0.558,1.630723672
0.56,1.825678443
0.562,1.690709755
0.564,1.990640171
0.566,2.665483608
0.568,2.830445337
0.57,2.500521879
0.572,2.485525358
0.574,2.590501004
0.576,2.185594942
0.578,1.615727151
0.58,1.855671484
0.582,2.1556019
0.584,2.215587984
0.586,2.680480129
0.588,2.965414024
0.59,3.010403586
0.592,2.920424462
0.594,2.725469691
0.596,2.080619296
0.598,1.660716714
0.6,2.005636692
0.602,2.185594942
0.604,2.290570588
0.606,2.950417503
0.608,3.160368794
0.61,3.295337482
0.612,3.625260939
0.614,2.995407066
0.616,2.200591463
0.618,1.735699318
0.62,1.810681922
0.622,1.900661047
0.624,2.605497525
0.626,2.950417503
0.628,2.920424462
0.63,2.860438378
0.632,3.115379232
0.634,2.725469691
0.636,2.365553192
0.638,2.14060538
0.64,2.065622776
0.642,2.1556019
0.644,2.440535796
0.646,3.025400107
0.648,3.280340961
0.65,2.845441857
0.652,2.605497525
0.654,2.33556015
0.656,1.885664526
0.658,1.645720193
0.66,1.675713235
0.662,1.855671484
0.664,2.110612338
0.666,2.545511441
0.668,2.725469691
0.67,2.875434899
0.672,2.575504483
0.674,2.425539275
0.676,2.110612338
0.678,1.690709755
0.68,2.065622776
0.682,2.050626255
0.684,2.245581025
0.686,2.71047317
0.688,3.055393149
0.69,2.725469691
0.692,2.245581025
0.694,2.050626255
0.696,1.735699318
0.698,1.555741068
0.7,1.525748026
0.702,1.840674963
0.704,2.14060538
0.706,2.575504483
0.708,2.935420982
0.71,3.08538619
0.712,2.725469691
0.714,2.275574067
0.716,1.915657567
0.718,1.78068888
0.72,1.900661047
0.722,1.555741068
0.724,2.290570588
0.726,2.785455774
0.728,2.845441857
0.73,2.680480129
0.732,2.470528837
0.734,2.320563629
0.736,1.975643651
0.738,1.720702797
0.74,1.60073063
0.742,2.035629734
0.744,2.365553192
0.746,2.71047317
0.748,2.800452295
0.75,2.830445337
0.752,2.755462733
0.754,2.125608859
0.756,2.215587984
0.758,2.290570588
0.76,2.455532317
0.762,2.695476649
0.764,3.220354878
0.766,3.520285294
0.768,3.805219189
0.77,4.315100897
0.772,4.450069584
0.774,3.760229627
0.776,3.505288773
0.778,3.190361836
0.78,3.310334003
0.782,2.605497525
0.784,3.190361836
0.786,2.560507962
0.788,2.665483608
0.79,2.680480129
0.792,2.095615817
0.794,1.315796735
0.796,0.865901111
0.798,0.85090459
0.8,1.03086284
0.802,1.345789777
0.804,1.60073063
0.806,2.050626255
0.808,2.260577546
0.81,2.455532317
0.812,2.320563629
0.814,1.615727151
0.816,1.150835006
0.818,1.330793256
0.82,1.825678443
0.822,2.170598421
0.824,2.455532317
0.826,2.680480129
0.828,2.635490566
0.83,2.680480129
0.832,2.605497525
0.834,2.320563629
0.836,1.870668005
0.838,1.825678443
0.84,1.855671484
0.842,2.1556019
0.844,2.845441857
0.846,3.190361836
0.848,2.725469691
0.85,2.410542754
0.852,2.575504483
0.854,2.33556015
0.856,1.96064713
0.858,1.840674963
0.86,2.020633213
0.862,2.245581025
0.864,2.785455774
0.866,3.08538619
0.868,2.965414024
0.87,2.815448816
0.872,2.560507962
0.874,2.245581025
0.876,2.14060538
0.878,2.215587984
0.88,2.125608859
0.882,2.215587984
0.884,2.770459253
0.886,3.175365315
0.888,3.025400107
0.89,2.920424462
0.892,3.07038967
0.894,2.545511441
0.896,2.320563629
0.898,2.125608859
0.9,2.245581025
0.902,2.290570588
0.904,2.5155184
0.906,3.130375753
0.908,3.100382711
0.91,2.920424462
0.912,2.800452295
0.914,2.33556015
0.916,2.1556019
0.918,2.005636692
0.92,2.275574067
0.922,2.455532317
0.924,3.44530269
0.926,3.325330523
0.928,3.460299211
0.93,3.160368794
0.932,2.950417503
0.934,2.485525358
0.936,2.080619296
0.938,1.945650609
0.94,2.410542754
0.942,2.5155184
0.944,2.860438378
0.946,3.08538619
0.948,3.26534444
0.95,3.385316607
0.952,2.860438378
0.954,2.575504483
0.956,2.830445337
0.958,2.5155184
0.96,2.920424462
0.962,3.07038967
0.964,3.44530269
0.966,3.805219189
0.968,3.400313127
0.97,3.415309648
0.972,3.44530269
0.974,3.145372274
0.976,3.160368794
0.978,3.040396628
0.98,2.935420982
0.982,3.010403586
0.984,3.670250502
0.986,3.865205272
0.988,4.180132209
0.99,4.135142647
0.992,3.355323565
0.994,3.295337482
0.996,3.250347919
0.998,3.655253981
1,3.145372274
1.002,3.730236585
1.004,4.270111334
1.006,4.585038271
1.008,4.660020875
1.01,4.150139168
1.012,3.895198314
1.014,3.64025746
1.016,3.535281815
1.018,3.505288773
1.02,3.805219189
1.022,4.165135689
1.024,4.180132209
1.026,4.510055667
1.028,4.390083501
1.03,4.19512873
1.032,3.82021571
1.034,3.790222668
1.036,3.44530269
1.038,3.370320086
1.04,3.280340961
1.042,3.805219189
1.044,4.19512873
1.046,4.345093938
1.048,4.330097417
1.05,3.940187876
1.052,3.355323565
1.054,3.295337482
1.056,2.815448816
1.058,2.530514921
1.06,2.950417503
1.062,3.295337482
1.064,3.550278335
1.066,3.595267898
1.068,3.565274856
1.07,3.160368794
1.072,2.875434899
1.074,2.470528837
1.076,2.725469691
1.078,2.320563629
1.08,2.755462733
1.082,2.950417503
1.084,3.280340961
1.086,3.190361836
1.088,3.295337482
1.09,3.055393149
1.092,2.785455774
1.094,2.5155184
1.096,2.1556019
1.098,2.095615817
1.1,2.365553192
1.102,3.205358357
1.104,3.100382711
1.106,2.995407066
1.108,2.950417503
1.11,2.995407066
1.112,2.455532317
1.114,2.005636692
1.116,2.200591463
1.118,1.945650609
1.12,2.170598421
1.122,2.680480129
1.124,2.950417503
1.126,3.220354878
1.128,3.07038967
1.13,2.725469691
1.132,2.33556015
1.134,2.1556019
1.136,2.320563629
1.138,2.470528837
1.14,2.815448816
1.142,3.010403586
1.144,3.115379232
1.146,3.130375753
1.148,3.115379232
1.15,2.950417503
1.152,2.785455774
1.154,2.260577546
1.156,2.065622776
1.158,2.095615817
1.16,2.350556671
1.162,2.590501004
1.164,3.07038967
1.166,3.130375753
1.168,3.055393149
1.17,2.755462733
1.172,2.470528837
1.174,2.290570588
1.176,2.14060538
1.178,2.170598421
1.18,2.500521879
1.182,3.460299211
1.184,3.325330523
1.186,3.025400107
1.188,2.965414024
1.19,2.800452295
1.192,2.740466212
1.194,2.350556671
1.196,1.885664526
1.198,2.275574067
1.2,2.605497525
1.202,2.950417503
1.204,3.280340961
1.206,3.250347919
1.208,2.995407066
1.21,2.845441857
1.212,2.410542754
1.214,2.200591463
1.216,2.110612338
1.218,2.305567108
1.22,2.500521879
1.222,3.130375753
1.224,2.725469691
1.226,3.025400107
1.228,2.980410545
1.23,2.650487087
1.232,2.320563629
1.234,2.410542754
1.236,2.290570588
1.238,2.185594942
1.24,2.605497525
1.242,2.575504483
1.244,2.620494045
1.246,2.800452295
1.248,2.935420982
1.25,2.500521879
1.252,2.350556671
1.254,2.14060538
1.256,2.065622776
1.258,2.065622776
1.26,2.380549712
1.262,2.740466212
1.264,3.220354878
1.266,3.235351398
1.268,3.295337482
1.27,2.680480129
1.272,2.245581025
1.274,2.245581025
1.276,2.035629734
1.278,2.14060538
1.28,2.350556671
1.282,2.605497525
1.284,2.860438378
1.286,3.130375753
1.288,2.905427941
1.29,2.725469691
1.292,2.275574067
1.294,1.78068888
1.296,1.900661047
1.298,2.035629734
1.3,2.650487087
1.302,3.145372274
1.304,2.965414024
1.306,3.205358357
1.308,3.130375753
1.31,2.545511441
1.312,2.095615817
1.314,2.005636692
1.316,2.080619296
1.318,2.380549712
1.32,2.425539275
1.322,3.025400107
1.324,3.010403586
1.326,3.025400107
1.328,2.755462733
1.33,2.470528837
1.332,2.065622776
1.334,2.305567108
1.336,1.840674963
1.338,1.690709755
1.34,2.605497525
1.342,3.07038967
1.344,3.130375753
1.346,3.145372274
1.348,2.860438378
1.35,2.33556015
1.352,2.350556671
1.354,1.975643651
1.356,2.095615817
1.358,2.095615817
1.36,2.590501004
1.362,3.115379232
1.364,2.995407066
1.366,3.100382711
1.368,3.115379232
1.37,2.935420982
1.372,2.365553192
1.374,2.185594942
1.376,2.020633213
1.378,2.260577546
1.38,2.530514921
1.382,2.89043142
1.384,2.935420982
1.386,2.740466212
1.388,2.71047317
1.39,2.260577546
1.392,2.050626255
1.394,2.020633213
1.396,1.96064713
1.398,2.230584504
1.4,3.370320086
1.402,3.580271377
1.404,3.08538619
1.406,2.995407066
1.408,3.025400107
1.41,2.590501004
1.412,2.440535796
1.414,2.305567108
1.416,2.440535796
1.418,2.605497525
1.42,2.650487087
1.422,3.08538619
1.424,3.040396628
1.426,2.905427941
1.428,2.905427941
1.43,2.755462733
1.432,2.605497525
1.434,2.590501004
1.436,2.33556015
1.438,2.620494045
1.44,2.920424462
1.442,2.845441857
1.444,3.08538619
1.446,2.905427941
1.448,2.815448816
1.45,2.275574067
1.452,2.1556019
1.454,2.275574067
1.456,2.33556015
1.458,2.260577546
1.46,2.395546233
1.462,2.980410545
1.464,2.875434899
1.466,2.860438378
1.468,2.665483608
1.47,2.950417503
1.472,2.245581025
1.474,1.840674963
1.476,1.96064713
1.478,2.200591463
1.48,2.665483608
1.482,2.830445337
1.484,2.995407066
1.486,2.755462733
1.488,2.830445337
1.49,2.14060538
1.492,2.200591463
1.494,2.035629734
1.496,2.200591463
1.498,2.365553192
1.5,2.770459253
1.502,3.055393149
1.504,3.280340961
1.506,2.875434899
1.508,2.845441857
1.51,2.320563629
1.512,2.14060538
1.514,1.885664526
1.516,2.035629734
1.518,2.425539275
1.52,2.470528837
1.522,2.800452295
1.524,2.905427941
1.526,2.740466212
1.528,2.560507962
1.53,2.215587984
1.532,1.915657567
1.534,1.870668005
1.536,2.185594942
1.538,2.410542754
1.54,2.830445337
1.542,2.905427941
1.544,2.830445337
1.546,3.565274856
1.548,2.830445337
1.55,2.110612338
1.552,2.005636692
1.554,2.080619296
1.556,2.695476649
1.558,2.950417503
1.56,3.385316607
1.562,3.64025746
1.564,4.00017396
1.566,4.315100897
1.568,4.19512873
1.57,4.030167001
1.572,3.685247023
1.574,3.565274856
1.576,3.850208752
1.578,3.235351398
1.58,3.175365315
1.582,3.130375753
1.584,2.755462733
1.586,2.545511441
1.588,2.200591463
1.59,1.555741068
1.592,1.090848923
1.594,1.120841965
1.596,1.375782818
1.598,1.825678443
1.6,2.125608859
1.602,2.320563629
1.604,2.365553192
1.606,2.395546233
1.608,2.050626255
1.61,2.080619296
1.612,1.900661047
1.614,1.285803694
1.616,1.900661047
1.618,2.455532317
1.62,2.680480129
1.622,3.160368794
1.624,2.935420982
1.626,2.920424462
1.628,2.470528837
1.63,2.185594942
1.632,2.065622776
1.634,2.065622776
1.636,2.290570588
1.638,2.575504483
1.64,2.71047317
1.642,3.07038967
1.644,3.115379232
1.646,2.635490566
1.648,2.620494045
1.65,2.740466212
1.652,2.455532317
1.654,2.755462733
1.656,2.530514921
1.658,2.590501004
1.66,2.800452295
1.662,2.935420982
1.664,2.89043142
1.666,2.740466212
1.668,2.290570588
1.67,2.185594942
1.672,1.885664526
1.674,2.095615817
1.676,2.200591463
1.678,2.755462733
1.68,3.235351398
1.682,3.055393149
1.684,3.025400107
1.686,2.755462733
1.688,2.545511441
1.69,2.5155184
1.692,2.185594942
1.694,2.095615817
1.696,2.320563629
1.698,2.71047317
1.7,2.815448816
1.702,3.385316607
1.704,3.055393149
1.706,3.115379232
1.708,2.575504483
1.71,2.095615817
1.712,2.080619296
1.714,2.230584504
1.716,2.71047317
1.718,3.025400107
1.72,3.07038967
1.722,3.520285294
1.724,3.325330523
1.726,3.160368794
1.728,3.115379232
1.73,2.455532317
1.732,2.050626255
1.734,2.245581025
1.736,2.575504483
1.738,2.995407066
1.74,3.26534444
1.742,3.400313127
1.744,3.295337482
1.746,2.980410545
1.748,2.590501004
1.75,2.500521879
1.752,2.605497525
1.754,2.770459253
1.756,2.905427941
1.758,3.280340961
1.76,3.685247023
1.762,3.595267898
1.764,3.505288773
1.766,3.340327044
1.768,2.800452295
1.77,2.860438378
1.772,2.635490566
1.774,2.89043142
1.776,3.220354878
1.778,3.850208752
1.78,3.775226148
1.782,4.150139168
1.784,3.925191356
1.786,3.895198314
1.788,3.370320086
1.79,3.250347919
1.792,3.475295731
1.794,3.385316607
1.796,3.670250502
1.798,4.060160043
1.8,4.045163522
1.802,4.495059146
1.804,4.315100897
1.806,4.150139168
1.808,3.610264419
1.81,3.325330523
1.812,3.835212231
1.814,3.565274856
1.816,3.760229627
1.818,4.090153084
1.82,4.420076542
1.822,4.57004175
1.824,4.270111334
1.826,3.940187876
1.828,3.835212231
1.83,3.625260939
1.832,3.520285294
1.834,3.730236585
1.836,3.685247023
1.838,3.745233106
1.84,4.315100897
1.842,4.00017396
1.844,4.030167001
1.846,3.685247023
1.848,3.295337482
1.85,2.845441857
1.852,2.875434899
1.854,3.160368794
1.856,3.205358357
1.858,3.430306169
1.86,3.505288773
1.862,3.520285294
1.864,3.385316607
1.866,3.415309648
1.868,3.130375753
1.87,3.08538619
1.872,2.785455774
1.874,2.770459253
1.876,2.290570588
1.878,2.545511441
1.88,3.280340961
1.882,3.115379232
1.884,3.175365315
1.886,2.71047317
1.888,2.33556015
1.89,2.230584504
1.892,2.455532317
1.894,2.500521879
1.896,2.770459253
1.898,3.010403586
1.9,3.235351398
1.902,3.07038967
1.904,3.040396628
1.906,2.920424462
1.908,2.575504483
1.91,1.690709755
1.912,1.945650609
1.914,2.200591463
1.916,2.680480129
1.918,2.875434899
1.92,3.160368794
1.922,3.295337482
1.924,2.830445337
1.926,2.5155184
1.928,2.305567108
1.93,2.245581025
1.932,2.320563629
1.934,2.185594942
1.936,3.055393149
1.938,3.07038967
1.94,2.905427941
1.942,2.920424462
1.944,3.025400107
1.946,2.725469691
1.948,2.200591463
1.95,2.200591463
1.952,2.095615817
1.954,2.275574067
1.956,2.785455774
1.958,3.07038967
1.96,3.565274856
1.962,2.995407066
1.964,2.680480129
1.966,2.1556019
1.968,2.560507962
1.97,2.215587984
1.972,2.095615817
1.974,2.485525358
1.976,2.575504483
1.978,3.145372274
1.98,3.295337482
1.982,3.130375753
1.984,2.950417503
1.986,2.740466212
1.988,2.5155184
1.99,2.020633213
1.992,2.260577546
1.994,2.185594942
1.996,2.770459253
1.998,3.08538619
2,2.935420982
2.002,3.130375753
2.004,2.920424462
2.006,2.470528837
2.008,2.33556015
2.01,2.095615817
2.012,2.245581025
2.014,2.665483608
2.016,3.040396628
2.018,3.025400107
2.02,3.115379232
2.022,2.665483608
2.024,2.755462733
2.026,2.410542754
2.028,2.425539275
2.03,2.095615817
2.032,2.14060538
2.034,2.305567108
2.036,2.755462733
2.038,3.040396628
2.04,3.055393149
2.042,2.785455774
2.044,2.725469691
2.046,2.800452295
2.048,2.200591463
2.05,2.050626255
2.052,2.245581025
2.054,2.500521879
2.056,2.725469691
2.058,2.845441857
2.06,2.935420982
2.062,2.935420982
2.064,2.800452295
2.066,2.470528837
2.068,2.230584504
2.07,1.78068888
2.072,2.245581025
2.074,2.290570588
2.076,2.485525358
2.078,2.830445337
2.08,3.100382711
2.082,3.160368794
2.084,2.905427941
2.086,2.33556015
2.088,2.170598421
2.09,1.945650609
2.092,2.440535796
2.094,2.260577546
2.096,2.725469691
2.098,2.770459253
2.1,2.740466212
2.102,2.770459253
2.104,2.965414024
2.106,2.455532317
2.108,2.1556019
2.11,1.705706276
2.112,2.230584504
2.114,2.455532317
2.116,2.665483608
2.118,2.800452295
2.12,3.175365315
2.122,3.220354878
2.124,2.635490566
2.126,1.945650609
2.128,1.810681922
2.13,1.735699318
2.132,1.855671484
2.134,2.5155184
2.136,3.010403586
2.138,2.800452295
2.14,2.785455774
2.142,2.89043142
2.144,2.680480129
2.146,2.170598421
2.148,1.96064713
2.15,2.185594942
2.152,2.290570588
2.154,2.410542754
2.156,2.560507962
2.158,2.89043142
2.16,3.07038967
2.162,3.145372274
2.164,2.740466212
2.166,1.885664526
2.168,1.58573411
2.17,2.005636692
2.172,2.185594942
2.174,2.5155184
2.176,2.650487087
2.178,2.995407066
2.18,2.905427941
2.182,2.665483608
2.184,2.410542754
2.186,2.230584504
2.188,2.260577546
2.19,2.095615817
2.192,1.96064713
2.194,2.395546233
2.196,2.965414024
2.198,3.010403586
2.2,2.905427941
2.202,2.965414024
2.204,2.440535796
2.206,2.035629734
2.208,1.690709755
2.21,1.765692359
2.212,2.050626255
2.214,2.365553192
2.216,2.605497525
2.218,3.100382711
2.22,2.980410545
2.222,2.905427941
2.224,2.455532317
2.226,2.230584504
2.228,1.990640171
2.23,1.765692359
2.232,2.230584504
2.234,2.485525358
2.236,2.500521879
2.238,3.205358357
2.24,3.250347919
2.242,2.770459253
2.244,2.305567108
2.246,2.005636692
2.248,1.615727151
2.25,1.690709755
2.252,2.575504483
2.254,2.665483608
2.256,2.830445337
2.258,3.370320086
2.26,3.010403586
2.262,2.905427941
2.264,2.410542754
2.266,2.005636692
2.268,2.020633213
2.27,2.185594942
2.272,2.170598421
2.274,2.380549712
2.276,2.740466212
2.278,2.965414024
2.28,3.235351398
2.282,3.115379232
2.284,2.485525358
2.286,1.990640171
2.288,2.215587984
2.29,2.215587984
2.292,2.230584504
2.294,2.770459253
2.296,2.830445337
2.298,3.160368794
2.3,3.08538619
2.302,2.815448816
2.304,2.395546233
2.306,2.125608859
2.308,2.125608859
2.31,2.260577546
2.312,2.455532317
2.314,2.545511441
2.316,3.010403586
2.318,3.190361836
2.32,3.025400107
2.322,2.740466212
2.324,2.215587984
2.326,2.005636692
2.328,2.200591463
2.33,1.870668005
2.332,1.915657567
2.334,2.470528837
2.336,2.71047317
2.338,2.905427941
2.34,2.500521879
2.342,2.815448816
2.344,2.230584504
2.346,1.840674963
2.348,1.885664526
2.35,2.1556019
2.352,2.095615817
2.354,2.935420982
2.356,2.845441857
2.358,2.5155184
2.36,2.680480129
2.362,2.500521879
2.364,1.990640171
2.366,1.930654088
2.368,2.050626255
2.37,2.050626255
2.372,2.170598421
2.374,2.740466212
2.376,2.71047317
2.378,2.680480129
2.38,2.680480129
2.382,2.560507962
2.384,2.215587984
2.386,1.78068888
2.388,1.735699318
2.39,1.870668005
2.392,2.170598421
2.394,2.605497525
2.396,2.800452295
2.398,2.665483608
2.4,2.410542754
2.402,2.410542754
2.404,2.380549712
2.406,1.930654088
2.408,1.915657567
2.41,2.125608859
2.412,2.470528837
2.414,2.440535796
2.416,2.500521879
2.418,2.695476649
2.42,2.845441857
2.422,2.500521879
2.424,1.915657567
2.426,2.020633213
2.428,1.945650609
2.43,2.245581025
2.432,2.5155184
2.434,3.040396628
2.436,3.625260939
2.438,3.895198314
2.44,3.850208752
2.442,4.150139168
2.444,3.970180918
2.446,3.490292252
2.448,3.415309648
2.45,3.580271377
2.452,3.385316607
2.454,3.235351398
2.456,2.995407066
2.458,3.040396628
2.46,2.635490566
2.462,2.005636692
2.464,1.58573411
2.466,1.345789777
2.468,1.270807173
2.47,1.315796735
2.472,1.420772381
2.474,1.945650609
2.476,2.365553192
2.478,2.350556671
2.48,1.840674963
2.482,1.690709755
2.484,1.525748026
2.486,1.510751506
2.488,1.705706276
2.49,1.930654088
2.492,2.200591463
2.494,2.530514921
2.496,2.650487087
2.498,2.725469691
2.5,2.635490566
2.502,2.440535796
2.504,2.305567108
2.506,1.96064713
2.508,1.60073063
2.51,2.33556015
2.512,2.1556019
2.514,2.545511441
2.516,2.530514921
2.518,3.08538619
2.52,2.755462733
2.522,2.470528837
2.524,1.855671484
2.526,1.78068888
2.528,2.365553192
2.53,2.230584504
2.532,2.185594942
2.534,2.815448816
2.536,3.010403586
2.538,2.785455774
2.54,2.785455774
2.542,2.560507962
2.544,1.840674963
2.546,1.78068888
2.548,1.690709755
2.55,2.050626255
2.552,2.545511441
2.554,2.935420982
2.556,2.785455774
2.558,2.740466212
2.56,3.010403586
2.562,2.320563629
2.564,1.975643651
2.566,1.870668005
2.568,1.975643651
2.57,2.110612338
2.572,2.5155184
2.574,2.620494045
2.576,2.920424462
2.578,3.025400107
2.58,2.995407066
2.582,2.665483608
2.584,1.945650609
2.586,2.050626255
2.588,2.110612338
2.59,1.885664526
2.592,2.440535796
2.594,3.130375753
2.596,3.235351398
2.598,3.250347919
2.6,3.160368794
2.602,2.485525358
2.604,2.320563629
2.606,1.990640171
2.608,2.095615817
2.61,2.635490566
2.612,2.980410545
2.614,2.965414024
2.616,3.26534444
2.618,2.845441857
2.62,2.575504483
2.622,2.680480129
2.624,2.290570588
2.626,2.020633213
2.628,2.1556019
2.63,2.800452295
2.632,3.040396628
2.634,3.370320086
2.636,3.580271377
2.638,3.610264419
2.64,3.370320086
2.642,2.89043142
2.644,2.665483608
2.646,2.545511441
2.648,2.440535796
2.65,2.950417503
2.652,3.26534444
2.654,3.655253981
2.656,3.985177439
2.658,3.625260939
2.66,3.355323565
2.662,3.235351398
2.664,3.115379232
2.666,2.755462733
2.668,2.935420982
2.67,3.310334003
2.672,3.550278335
2.674,3.685247023
2.676,3.760229627
2.678,4.00017396
2.68,3.865205272
2.682,3.535281815
2.684,3.26534444
2.686,3.490292252
2.688,3.415309648
2.69,3.400313127
2.692,4.060160043
2.694,4.390083501
2.696,4.300104376
2.698,4.135142647
2.7,4.165135689
2.702,3.790222668
2.704,3.400313127
2.706,3.220354878
2.708,3.190361836
2.71,3.310334003
2.712,4.01517048
2.714,4.00017396
2.716,3.82021571
2.718,3.64025746
2.72,3.310334003
2.722,3.145372274
2.724,2.980410545
2.726,2.770459253
2.728,2.755462733
2.73,2.995407066
2.732,3.385316607
2.734,3.805219189
2.736,3.670250502
2.738,3.175365315
2.74,2.740466212
2.742,2.605497525
2.744,2.350556671
2.746,2.440535796
2.748,2.260577546
2.75,2.815448816
2.752,2.785455774
2.754,3.010403586
2.756,3.145372274
2.758,2.920424462
2.76,2.530514921
2.762,2.125608859
2.764,1.975643651
2.766,1.96064713
2.768,2.245581025
2.77,2.530514921
2.772,2.995407066
2.774,3.08538619
2.776,3.07038967
2.778,2.830445337
2.78,2.695476649
2.782,2.005636692
2.784,1.840674963
2.786,1.750695839
2.788,1.945650609
2.79,2.440535796
2.792,2.905427941
2.794,3.160368794
2.796,2.830445337
2.798,2.830445337
2.8,2.185594942
2.802,1.840674963
2.804,1.975643651
2.806,1.915657567
2.808,2.215587984
2.81,2.575504483
2.812,2.725469691
2.814,2.815448816
2.816,2.995407066
2.818,2.695476649
2.82,2.680480129
2.822,2.095615817
2.824,1.765692359
2.826,2.215587984
2.828,2.050626255
2.83,2.275574067
2.832,2.71047317
2.834,3.160368794
2.836,2.830445337
2.838,2.530514921
2.84,2.305567108
2.842,1.930654088
2.844,1.945650609
2.846,1.930654088
2.848,2.110612338
2.85,2.470528837
2.852,2.920424462
2.854,2.920424462
2.856,2.815448816
2.858,2.500521879
2.86,2.470528837
2.862,2.1556019
2.864,1.510751506
2.866,1.78068888
2.868,2.215587984
2.87,2.470528837
2.872,2.875434899
2.874,2.71047317
2.876,2.845441857
2.878,2.755462733
2.88,2.125608859
2.882,2.065622776
2.884,2.14060538
2.886,1.78068888
2.888,2.080619296
2.89,2.560507962
2.892,2.770459253
2.894,2.980410545
2.896,3.145372274
2.898,2.650487087
2.9,2.33556015
2.902,1.870668005
2.904,1.78068888
2.906,2.035629734
2.908,2.350556671
2.91,2.440535796
2.912,2.680480129
2.914,2.905427941
2.916,2.680480129
2.918,2.455532317
2.92,2.095615817
2.922,1.930654088
2.924,1.990640171
2.926,2.125608859
2.928,2.050626255
2.93,2.560507962
2.932,2.89043142
2.934,2.875434899
2.936,2.695476649
2.938,2.575504483
2.94,2.185594942
2.942,1.975643651
2.944,1.795685401
2.946,1.930654088
2.948,2.185594942
2.95,2.605497525
2.952,2.905427941
2.954,2.815448816
2.956,2.635490566
2.958,2.440535796
2.96,1.825678443
2.962,1.855671484
2.964,1.945650609
2.966,1.870668005
2.968,2.170598421
2.97,2.740466212
2.972,2.770459253
2.974,3.160368794
2.976,2.830445337
2.978,2.920424462
2.98,1.885664526
2.982,1.900661047
2.984,1.60073063
2.986,1.990640171
2.988,2.260577546
2.99,2.440535796
2.992,2.635490566
2.994,2.860438378
2.996,2.680480129
2.998,2.635490566
3,2.065622776
3.002,1.990640171
3.004,1.870668005
3.006,1.870668005
3.008,2.230584504
3.01,2.5155184
3.012,2.755462733
3.014,2.665483608
3.016,2.5155184
3.018,2.455532317
3.02,2.260577546
3.022,2.1556019
3.024,1.900661047
3.026,2.110612338
3.028,2.14060538
3.03,2.635490566
3.032,2.695476649
3.034,2.71047317
3.036,2.500521879
3.038,2.350556671
3.04,1.915657567
3.042,1.900661047
3.044,1.900661047
3.046,1.810681922
3.048,1.810681922
3.05,2.980410545
3.052,3.26534444
3.054,3.205358357
3.056,2.200591463
3.058,2.380549712
3.06,2.455532317
3.062,1.885664526
3.064,1.60073063
3.066,2.080619296
3.068,2.260577546
3.07,2.455532317
3.072,2.815448816
3.074,2.965414024
3.076,2.485525358
3.078,2.440535796
3.08,2.065622776
3.082,2.080619296
3.084,1.825678443
3.086,1.810681922
3.088,2.305567108
3.09,2.860438378
3.092,2.935420982
3.094,2.650487087
3.096,2.530514921
3.098,2.33556015
3.1,1.930654088
3.102,1.975643651
3.104,1.945650609
3.106,2.005636692
3.108,2.425539275
3.11,2.575504483
3.112,2.71047317
3.114,2.905427941
3.116,2.800452295
3.118,2.500521879
3.12,2.080619296
3.122,1.735699318
3.124,1.825678443
3.126,2.275574067
3.128,2.485525358
3.13,2.620494045
3.132,2.665483608
3.134,2.995407066
3.136,2.485525358
3.138,2.305567108
3.14,1.915657567
3.142,1.690709755
3.144,1.795685401
3.146,2.260577546
3.148,2.215587984
3.15,2.560507962
3.152,3.040396628
3.154,2.740466212
3.156,2.500521879
3.158,2.200591463
3.16,2.170598421
3.162,1.870668005
3.164,2.380549712
3.166,2.410542754
3.168,2.560507962
3.17,2.605497525
3.172,2.590501004
3.174,2.650487087
3.176,2.590501004
3.178,2.470528837
3.18,1.945650609
3.182,1.795685401
3.184,2.200591463
3.186,2.185594942
3.188,2.455532317
3.19,2.635490566
3.192,2.785455774
3.194,2.845441857
3.196,2.635490566
3.198,2.350556671
3.2,1.945650609
3.202,1.735699318
3.204,1.720702797
3.206,1.885664526
3.208,2.575504483
3.21,2.530514921
3.212,2.785455774
3.214,2.905427941
3.216,2.530514921
3.218,2.200591463
3.22,2.005636692
3.222,1.885664526
3.224,1.825678443
3.226,2.365553192
3.228,2.935420982
3.23,2.785455774
3.232,2.545511441
3.234,2.605497525
3.236,2.500521879
3.238,2.110612338
3.24,1.990640171
3.242,1.795685401
3.244,1.855671484
3.246,2.035629734
3.248,2.545511441
3.25,2.875434899
3.252,3.26534444
3.254,2.680480129
3.256,2.725469691
3.258,2.455532317
3.26,1.765692359
3.262,1.58573411
3.264,1.900661047
3.266,2.110612338
3.268,2.380549712
3.27,2.875434899
3.272,2.770459253
3.274,2.965414024
3.276,2.620494045
3.278,2.14060538
3.28,1.765692359
3.282,1.660716714
3.284,1.795685401
3.286,2.110612338
3.288,2.560507962
3.29,2.770459253
3.292,3.205358357
3.294,3.055393149
3.296,2.545511441
3.298,2.080619296
3.3,1.58573411
3.302,1.675713235
3.304,2.125608859
3.306,2.110612338
3.308,2.650487087
3.31,2.89043142
3.312,2.635490566
3.314,2.635490566
3.316,2.905427941
3.318,2.170598421
3.32,1.885664526
3.322,2.185594942
3.324,2.1556019
3.326,2.080619296
3.328,2.800452295
3.33,2.770459253
3.332,2.605497525
3.334,2.725469691
3.336,2.785455774
3.338,2.245581025
3.34,1.810681922
3.342,1.975643651
3.344,2.365553192
3.346,2.875434899
3.348,2.845441857
3.35,2.560507962
3.352,3.100382711
3.354,2.680480129
3.356,2.905427941
3.358,2.005636692
3.36,1.930654088
3.362,2.125608859
3.364,2.230584504
3.366,2.455532317
3.368,2.620494045
3.37,2.980410545
3.372,2.980410545
3.374,2.920424462
3.376,2.845441857
3.378,2.485525358
3.38,2.260577546
3.382,2.050626255
3.384,2.110612338
3.386,2.635490566
3.388,2.665483608
3.39,2.755462733
3.392,2.995407066
3.394,2.635490566
3.396,2.650487087
3.398,2.065622776
3.4,1.78068888
3.402,1.58573411
3.404,1.630723672
3.406,2.620494045
3.408,2.800452295
3.41,3.490292252
3.412,2.605497525
3.414,2.830445337
3.416,2.410542754
3.418,1.795685401
3.42,1.900661047
3.422,1.675713235
3.424,1.78068888
3.426,2.260577546
3.428,2.755462733
3.43,2.845441857
3.432,2.860438378
3.434,2.920424462
3.436,2.395546233
3.438,1.78068888
3.44,1.630723672
3.442,1.855671484
3.444,1.855671484
3.446,2.230584504
3.448,2.635490566
3.45,2.830445337
3.452,2.830445337
3.454,2.770459253
3.456,2.185594942
3.458,1.975643651
3.46,1.795685401
3.462,1.645720193
3.464,1.810681922
3.466,2.5155184
3.468,2.770459253
3.47,2.635490566
3.472,2.770459253
3.474,2.560507962
3.476,2.305567108
3.478,1.96064713
3.48,1.765692359
3.482,1.78068888
3.484,1.825678443
3.486,2.245581025
3.488,2.845441857
3.49,3.205358357
3.492,3.100382711
3.494,2.290570588
3.496,1.990640171
3.498,1.810681922
3.5,1.990640171
3.502,2.5155184
3.504,2.470528837
3.506,3.115379232
3.508,3.190361836
3.51,4.00017396
3.512,3.895198314
3.514,4.210125251
3.516,4.135142647
3.518,3.700243543
3.52,3.310334003
3.522,2.845441857
3.524,2.71047317
3.526,3.07038967
3.528,3.07038967
3.53,2.845441857
3.532,2.680480129
3.534,2.410542754
3.536,2.020633213
3.538,1.465761943
3.54,1.120841965
3.542,1.330793256
3.544,1.480758464
3.546,1.900661047
3.548,1.885664526
3.55,1.930654088
3.552,2.065622776
3.554,1.930654088
3.556,1.870668005
3.558,1.795685401
3.56,1.60073063
3.562,1.975643651
3.564,2.080619296
3.566,2.425539275
3.568,2.935420982
3.57,2.920424462
3.572,2.725469691
3.574,2.470528837
3.576,1.915657567
3.578,1.720702797
3.58,1.855671484
3.582,2.215587984
3.584,2.050626255
3.586,2.500521879
3.588,3.040396628
3.59,2.755462733
3.592,2.410542754
3.594,2.575504483
3.596,2.110612338
3.598,1.870668005
3.6,1.750695839
3.602,1.58573411
3.604,2.260577546
3.606,2.605497525
3.608,3.220354878
3.61,2.920424462
3.612,2.785455774
3.614,2.575504483
3.616,2.305567108
3.618,1.870668005
3.62,1.870668005
3.622,2.125608859
3.624,2.33556015
3.626,2.530514921
3.628,2.770459253
3.63,3.130375753
3.632,2.935420982
3.634,2.470528837
3.636,1.96064713
3.638,1.795685401
3.64,2.260577546
3.642,2.005636692
3.644,2.125608859
3.646,2.5155184
3.648,3.010403586
3.65,2.875434899
3.652,2.800452295
3.654,2.575504483
3.656,2.125608859
3.658,2.215587984
3.66,2.110612338
3.662,2.185594942
3.664,2.1556019
3.666,2.905427941
3.668,3.175365315
3.67,3.355323565
3.672,2.875434899
3.674,2.410542754
3.676,2.020633213
3.678,1.870668005
3.68,2.005636692
3.682,2.380549712
3.684,2.815448816
3.686,2.785455774
3.688,3.175365315
3.69,3.26534444
3.692,3.190361836
3.694,2.455532317
3.696,2.410542754
3.698,2.305567108
3.7,2.380549712
3.702,2.305567108
3.704,2.635490566
3.706,3.025400107
3.708,3.250347919
3.71,3.565274856
3.712,3.235351398
3.714,3.08538619
3.716,2.770459253
3.718,2.5155184
3.72,2.680480129
3.722,3.100382711
3.724,3.505288773
3.726,3.505288773
3.728,3.82021571
3.73,3.835212231
3.732,3.580271377
3.734,3.100382711
3.736,2.740466212
3.738,2.785455774
3.74,2.905427941
3.742,3.205358357
3.744,3.655253981
3.746,3.835212231
3.748,4.01517048
3.75,4.135142647
3.752,3.925191356
3.754,3.460299211
3.756,3.655253981
3.758,3.145372274
3.76,3.550278335
3.762,3.790222668
3.764,3.715240064
3.766,3.985177439
3.768,4.060160043
3.77,4.120146126
3.772,4.150139168
3.774,3.880201793
3.776,3.295337482
3.778,3.190361836
3.78,3.220354878
3.782,3.430306169
3.784,3.550278335
3.786,3.880201793
3.788,4.405080021
3.79,4.660020875
3.792,3.910194835
3.794,3.550278335
3.796,3.26534444
3.798,2.725469691
3.8,2.875434899
3.802,3.205358357
3.804,3.610264419
3.806,3.325330523
3.808,3.26534444
3.81,3.130375753
3.812,3.100382711
3.814,2.89043142
3.816,2.845441857
3.818,2.410542754
3.82,2.380549712
3.822,2.785455774
3.824,3.235351398
3.826,3.325330523
3.828,3.325330523
3.83,2.950417503
3.832,2.830445337
3.834,2.575504483
3.836,2.230584504
3.838,2.14060538
3.84,2.080619296
3.842,2.215587984
3.844,2.560507962
3.846,2.800452295
3.848,3.040396628
3.85,3.205358357
3.852,2.620494045
3.854,2.5155184
3.856,2.200591463
3.858,2.035629734
3.86,2.035629734
3.862,2.755462733
3.864,3.190361836
3.866,2.650487087
3.868,2.740466212
3.87,2.905427941
3.872,2.755462733
3.874,2.1556019
3.876,2.080619296
3.878,1.96064713
3.88,2.065622776
3.882,2.065622776
3.884,2.470528837
3.886,3.190361836
3.888,3.130375753
3.89,3.160368794
3.892,2.785455774
3.894,2.365553192
3.896,2.110612338
3.898,1.810681922
3.9,2.065622776
3.902,2.320563629
3.904,2.995407066
3.906,3.07038967
3.908,2.965414024
3.91,2.71047317
3.912,2.560507962
3.914,2.305567108
3.916,2.290570588
3.918,1.990640171
3.92,2.080619296
3.922,2.500521879
3.924,2.965414024
3.926,3.115379232
3.928,3.205358357
3.93,2.740466212
3.932,2.500521879
3.934,1.885664526
3.936,1.885664526
3.938,1.975643651
3.94,2.215587984
3.942,2.455532317
3.944,2.785455774
3.946,2.905427941
3.948,3.025400107
3.95,2.980410545
3.952,2.650487087
3.954,2.365553192
3.956,2.095615817
3.958,1.96064713
3.96,2.260577546
3.962,2.170598421
3.964,2.590501004
3.966,2.800452295
3.968,3.205358357
3.97,2.875434899
3.972,2.665483608
3.974,2.005636692
3.976,2.125608859
3.978,1.96064713
3.98,2.125608859
3.982,2.785455774
3.984,3.100382711
3.986,3.190361836
3.988,2.755462733
3.99,2.545511441
3.992,2.575504483
3.994,2.230584504
3.996,1.945650609
3.998,2.125608859
4,2.215587984
4.002,2.320563629
4.004,2.725469691
4.006,3.160368794
4.008,3.44530269
4.01,3.055393149
4.012,2.230584504
4.014,2.290570588
4.016,2.065622776
4.018,1.765692359
4.02,2.245581025
4.022,2.470528837
4.024,2.845441857
4.026,2.950417503
4.028,2.89043142
4.03,2.71047317
4.032,2.365553192
4.034,2.125608859
4.036,1.945650609
4.038,1.840674963
4.04,2.245581025
4.042,2.440535796
4.044,2.830445337
4.046,3.08538619
4.048,2.89043142
4.05,2.935420982
4.052,2.740466212
4.054,2.1556019
4.056,1.645720193
4.058,2.305567108
4.06,2.470528837
4.062,2.260577546
4.064,2.71047317
4.066,3.190361836
4.068,2.965414024
4.07,2.650487087
4.072,2.215587984
4.074,1.930654088
4.076,2.065622776
4.078,2.065622776
4.08,1.96064713
4.082,2.635490566
4.084,2.965414024
4.086,3.145372274
4.088,2.620494045
4.09,2.575504483
4.092,2.200591463
4.094,2.020633213
4.096,2.035629734
4.098,1.930654088
4.1,2.320563629
4.102,2.860438378
4.104,2.935420982
4.106,2.920424462
4.108,3.025400107
4.11,2.71047317
4.112,2.305567108
4.114,2.230584504
4.116,2.065622776
4.118,1.990640171
4.12,2.020633213
4.122,2.650487087
4.124,2.860438378
4.126,3.08538619
4.128,2.950417503
4.13,2.740466212
4.132,2.200591463
4.134,1.930654088
4.136,1.705706276
4.138,1.945650609
4.14,2.14060538
4.142,2.470528837
4.144,2.950417503
4.146,3.325330523
4.148,2.950417503
4.15,2.845441857
4.152,2.275574067
4.154,1.795685401
4.156,1.720702797
4.158,2.230584504
4.16,2.125608859
4.162,2.545511441
4.164,3.100382711
4.166,3.07038967
4.168,2.815448816
4.17,2.905427941
4.172,2.5155184
4.174,2.260577546
4.176,1.810681922
4.178,2.110612338
4.18,2.365553192
4.182,2.440535796
4.184,2.755462733
4.186,2.950417503
4.188,2.860438378
4.19,2.680480129
4.192,2.125608859
4.194,1.855671484
4.196,1.96064713
4.198,2.050626255
4.2,2.545511441
4.202,2.71047317
4.204,2.89043142
4.206,2.980410545
4.208,2.770459253
4.21,2.560507962
4.212,2.725469691
4.214,2.305567108
4.216,1.885664526
4.218,1.990640171
4.22,2.275574067
4.222,2.680480129
4.224,2.830445337
4.226,3.08538619
4.228,2.905427941
4.23,2.410542754
4.232,2.1556019
4.234,1.915657567
4.236,1.885664526
4.238,2.005636692
4.24,2.305567108
4.242,2.875434899
4.244,2.800452295
4.246,3.025400107
4.248,3.220354878
4.25,2.860438378
4.252,2.215587984
4.254,1.975643651
4.256,1.885664526
4.258,2.350556671
4.26,2.410542754
4.262,2.455532317
4.264,2.935420982
4.266,2.875434899
4.268,2.680480129
4.27,2.290570588
4.272,2.215587984
4.274,2.125608859
4.276,2.005636692
4.278,2.1556019
4.28,2.500521879
4.282,2.815448816
4.284,2.860438378
4.286,2.860438378
4.288,2.935420982
4.29,2.905427941
4.292,1.945650609
4.294,1.810681922
4.296,2.005636692
4.298,2.020633213
4.3,2.260577546
4.302,2.725469691
4.304,3.07038967
4.306,3.205358357
4.308,2.560507962
4.31,2.125608859
4.312,2.665483608
4.314,2.320563629
4.316,2.095615817
4.318,1.975643651
4.32,2.275574067
4.322,2.860438378
4.324,2.995407066
4.326,2.665483608
4.328,2.770459253
4.33,2.530514921
4.332,2.005636692
4.334,2.020633213
4.336,2.080619296
4.338,2.275574067
4.34,2.425539275
4.342,2.785455774
4.344,3.145372274
4.346,3.280340961
4.348,2.845441857
4.35,2.485525358
4.352,1.945650609
4.354,2.005636692
4.356,1.96064713
4.358,1.900661047
4.36,2.575504483
4.362,2.89043142
4.364,2.89043142
4.366,2.920424462
4.368,2.725469691
4.37,2.425539275
4.372,1.975643651
4.374,1.825678443
4.376,2.110612338
4.378,2.185594942
4.38,2.830445337
4.382,2.740466212
4.384,2.89043142
4.386,2.755462733
4.388,2.500521879
4.39,2.215587984
4.392,2.080619296
4.394,2.005636692
4.396,1.990640171
4.398,2.095615817
4.4,2.365553192
4.402,2.935420982
4.404,3.370320086
4.406,3.115379232
4.408,2.860438378
4.41,2.440535796
4.412,2.005636692
4.414,1.930654088
4.416,2.1556019
4.418,2.185594942
4.42,2.695476649
4.422,2.770459253
4.424,3.040396628
4.426,3.010403586
4.428,2.845441857
4.43,2.260577546
4.432,1.810681922
4.434,1.96064713
4.436,2.005636692
4.438,2.185594942
4.44,2.530514921
4.442,3.025400107
4.444,2.770459253
4.446,3.08538619
4.448,2.695476649
4.45,2.650487087
4.452,2.290570588
4.454,1.615727151
4.456,2.215587984
4.458,2.380549712
4.46,2.725469691
4.462,2.770459253
4.464,2.905427941
4.466,3.235351398
4.468,3.010403586
4.47,2.305567108
4.472,2.245581025
4.474,2.260577546
4.476,2.695476649
4.478,2.740466212
4.48,2.920424462
4.482,3.08538619
4.484,3.310334003
4.486,3.145372274
4.488,2.755462733
4.49,2.305567108
4.492,2.33556015
4.494,2.1556019
4.496,2.275574067
4.498,2.530514921
4.5,2.800452295
4.502,2.860438378
4.504,2.935420982
4.506,2.800452295
4.508,2.89043142
4.51,2.545511441
4.512,1.810681922
4.514,1.825678443
4.516,1.900661047
4.518,2.005636692
4.52,2.665483608
4.522,3.130375753
4.524,3.040396628
4.526,2.905427941
4.528,2.740466212
4.53,2.125608859
4.532,1.900661047
4.534,1.78068888
4.536,2.065622776
4.538,2.095615817
4.54,2.770459253
4.542,2.860438378
4.544,2.860438378
4.546,2.725469691
4.548,2.380549712
4.55,2.035629734
4.552,1.975643651
4.554,2.1556019
4.556,2.125608859
4.558,2.560507962
4.56,2.665483608
4.562,2.950417503
4.564,2.965414024
4.566,2.680480129
4.568,2.350556671
4.57,1.900661047
4.572,1.945650609
4.574,2.065622776
4.576,1.915657567
4.578,2.350556671
4.58,3.08538619
4.582,3.010403586
4.584,2.740466212
4.586,2.815448816
4.588,2.500521879
4.59,2.095615817
4.592,1.900661047
4.594,2.125608859
4.596,2.395546233
4.598,2.395546233
4.6,2.770459253
4.602,2.680480129
4.604,2.815448816
4.606,3.07038967
4.608,2.530514921
4.61,2.200591463
4.612,2.215587984
4.614,2.410542754
4.616,2.605497525
4.618,2.980410545
4.62,3.970180918
4.622,4.105149605
4.624,4.360090459
4.626,4.435073063
4.628,3.985177439
4.63,3.550278335
4.632,3.280340961
4.634,2.875434899
4.636,2.800452295
4.638,2.875434899
4.64,2.950417503
4.642,3.130375753
4.644,2.665483608
4.646,2.350556671
4.648,2.095615817
4.65,1.765692359
4.652,1.525748026
4.654,1.21082109
4.656,1.465761943
4.658,1.885664526
4.66,2.305567108
4.662,2.440535796
4.664,2.065622776
4.666,2.200591463
4.668,1.900661047
4.67,1.720702797
4.672,1.885664526
4.674,1.810681922
4.676,2.170598421
4.678,2.590501004
4.68,2.920424462
4.682,3.115379232
4.684,2.860438378
4.686,2.365553192
4.688,2.200591463
4.69,2.1556019
4.692,2.035629734
4.694,2.125608859
4.696,2.455532317
4.698,2.740466212
4.7,2.920424462
4.702,3.145372274
4.704,3.025400107
4.706,2.575504483
4.708,2.33556015
4.71,2.095615817
4.712,1.990640171
4.714,1.975643651
4.716,2.275574067
4.718,2.365553192
4.72,2.965414024
4.722,3.385316607
4.724,3.07038967
4.726,2.785455774
4.728,2.545511441
4.73,1.96064713
4.732,1.945650609
4.734,2.185594942
4.736,2.350556671
4.738,2.830445337
4.74,3.025400107
4.742,3.26534444
4.744,2.770459253
4.746,2.650487087
4.748,2.455532317
4.75,2.125608859
4.752,2.14060538
4.754,2.245581025
4.756,2.1556019
4.758,2.980410545
4.76,3.280340961
4.762,3.250347919
4.764,3.130375753
4.766,2.935420982
4.768,2.785455774
4.77,2.065622776
4.772,2.035629734
4.774,2.095615817
4.776,2.485525358
4.778,3.055393149
4.78,3.100382711
4.782,3.610264419
4.784,3.190361836
4.786,2.545511441
4.788,2.290570588
4.79,3.025400107
4.792,2.455532317
4.794,2.350556671
4.796,2.695476649
4.798,2.950417503
4.8,3.055393149
4.802,3.08538619
4.804,3.340327044
4.806,2.875434899
4.808,2.71047317
4.81,2.230584504
4.812,2.305567108
4.814,2.71047317
4.816,2.815448816
4.818,3.505288773
4.82,3.775226148
4.822,3.520285294
4.824,3.505288773
4.826,3.310334003
4.828,3.010403586
4.83,2.935420982
4.832,2.785455774
4.834,2.815448816
4.836,3.160368794
4.838,3.475295731
4.84,3.925191356
4.842,4.135142647
4.844,4.045163522
4.846,3.340327044
4.848,3.08538619
4.85,3.355323565
4.852,3.220354878
4.854,3.205358357
4.856,3.535281815
4.858,3.940187876
4.86,4.270111334
4.862,4.180132209
4.864,4.150139168
4.866,4.180132209
4.868,3.595267898
4.87,3.505288773
4.872,3.775226148
4.874,3.790222668
4.876,3.82021571
4.878,3.940187876
4.88,4.525052188
4.882,4.57004175
4.884,4.210125251
4.886,3.910194835
4.888,3.790222668
4.89,3.415309648
4.892,3.460299211
4.894,3.700243543
4.896,3.835212231
4.898,4.01517048
4.9,4.270111334
4.902,4.615031313
4.904,4.180132209
4.906,3.505288773
4.908,3.370320086
4.91,3.145372274
4.912,3.400313127
4.914,3.325330523
4.916,3.26534444
4.918,3.430306169
4.92,3.835212231
4.922,3.730236585
4.924,3.520285294
4.926,3.130375753
4.928,2.815448816
4.93,2.485525358
4.932,2.350556671
4.934,2.440535796
4.936,2.830445337
4.938,3.26534444
4.94,3.580271377
4.942,3.460299211
4.944,3.175365315
4.946,2.875434899
4.948,2.545511441
4.95,2.080619296
4.952,2.200591463
4.954,2.530514921
4.956,2.815448816
4.958,2.845441857
4.96,3.010403586
4.962,3.26534444
4.964,3.190361836
4.966,2.920424462
4.968,2.560507962
4.97,2.365553192
4.972,2.005636692
4.974,2.170598421
4.976,2.725469691
4.978,2.755462733
4.98,3.310334003
4.982,3.355323565
4.984,2.800452295
4.986,2.33556015
4.988,2.5155184
4.99,2.275574067
4.992,1.990640171
4.994,2.320563629
4.996,2.770459253
4.998,3.130375753
5,2.980410545
5.002,2.71047317
5.004,2.920424462
5.006,2.635490566
5.008,2.320563629
5.01,2.095615817
5.012,2.170598421
5.014,2.050626255
5.016,2.770459253
5.018,2.905427941
5.02,3.025400107
5.022,3.160368794
5.024,3.26534444
5.026,2.680480129
5.028,2.290570588
5.03,2.230584504
5.032,2.275574067
5.034,2.410542754
5.036,2.650487087
5.038,3.010403586
5.04,3.160368794
5.042,3.07038967
5.044,2.755462733
5.046,2.560507962
5.048,2.185594942
5.05,2.080619296
5.052,2.14060538
5.054,2.275574067
5.056,2.875434899
5.058,3.010403586
5.06,3.160368794
5.062,2.845441857
5.064,3.44530269
5.066,2.395546233
5.068,2.035629734
5.07,2.125608859
5.072,2.33556015
5.074,2.590501004
5.076,2.785455774
5.078,3.025400107
5.08,3.355323565
5.082,2.935420982
5.084,2.800452295
5.086,2.290570588
5.088,2.215587984
5.09,2.290570588
5.092,2.365553192
5.094,2.650487087
5.096,3.055393149
5.098,3.025400107
5.1,2.755462733
5.102,3.025400107
5.104,2.920424462
5.106,2.425539275
5.108,2.245581025
5.11,2.125608859
5.112,2.1556019
5.114,2.365553192
5.116,2.740466212
5.118,3.08538619
5.12,3.08538619
5.122,2.800452295
5.124,2.770459253
5.126,2.530514921
5.128,2.380549712
5.13,2.200591463
5.132,2.1556019
5.134,2.440535796
5.136,2.845441857
5.138,2.950417503
5.14,3.175365315
5.142,2.995407066
5.144,2.875434899
5.146,2.125608859
5.148,1.975643651
5.15,1.930654088
5.152,2.14060538
5.154,2.530514921
5.156,2.89043142
5.158,3.145372274
5.16,3.385316607
5.162,3.115379232
5.164,2.560507962
5.166,2.350556671
5.168,1.825678443
5.17,1.945650609
5.172,2.005636692
5.174,2.485525358
5.176,2.680480129
5.178,2.950417503
5.18,2.980410545
5.182,2.830445337
5.184,2.590501004
5.186,2.425539275
5.188,1.885664526
5.19,2.200591463
5.192,2.215587984
5.194,2.380549712
5.196,2.560507962
5.198,2.740466212
5.2,3.295337482
5.202,3.07038967
5.204,2.650487087
5.206,2.320563629
5.208,2.1556019
5.21,2.410542754
5.212,2.455532317
5.214,2.425539275
5.216,2.785455774
5.218,2.965414024
5.22,2.965414024
5.222,2.875434899
5.224,2.680480129
5.226,2.095615817
5.228,1.810681922
5.23,2.050626255
5.232,2.200591463
5.234,2.560507962
5.236,2.740466212
5.238,2.980410545
5.24,2.995407066
5.242,2.965414024
5.244,2.395546233
5.246,2.005636692
5.248,1.900661047
5.25,2.005636692
5.252,2.230584504
5.254,2.635490566
5.256,2.905427941
5.258,3.100382711
5.26,2.845441857
5.262,2.605497525
5.264,2.560507962
5.266,2.185594942
5.268,2.020633213
5.27,1.870668005
5.272,2.245581025
5.274,2.650487087
5.276,2.980410545
5.278,3.160368794
5.28,3.190361836
5.282,3.250347919
5.284,2.33556015
5.286,2.005636692
5.288,2.125608859
5.29,2.065622776
5.292,1.855671484
5.294,2.545511441
5.296,2.620494045
5.298,2.770459253
5.3,2.785455774
5.302,2.740466212
5.304,2.425539275
5.306,2.500521879
5.308,2.020633213
5.31,1.975643651
5.312,2.110612338
5.314,2.470528837
5.316,2.575504483
5.318,2.770459253
5.32,3.145372274
5.322,3.055393149
5.324,2.530514921
5.326,2.050626255
5.328,2.005636692
5.33,2.245581025
5.332,2.530514921
5.334,2.365553192
5.336,2.650487087
5.338,2.905427941
5.34,2.920424462
5.342,2.485525358
5.344,2.245581025
5.346,2.080619296
5.348,1.945650609
5.35,1.975643651
5.352,2.275574067
5.354,2.635490566
5.356,2.935420982
5.358,3.010403586
5.36,3.010403586
5.362,2.485525358
5.364,2.290570588
5.366,1.78068888
5.368,1.945650609
5.37,1.870668005
5.372,2.33556015
5.374,2.695476649
5.376,3.100382711
5.378,3.025400107
5.38,2.89043142
5.382,2.725469691
5.384,2.455532317
5.386,2.230584504
5.388,1.885664526
5.39,2.170598421
5.392,2.305567108
5.394,2.665483608
5.396,3.010403586
5.398,3.175365315
5.4,2.590501004
5.402,2.650487087
5.404,2.185594942
5.406,1.840674963
5.408,1.915657567
5.41,1.840674963
5.412,2.260577546
5.414,2.755462733
5.416,2.965414024
5.418,2.965414024
5.42,2.500521879
5.422,2.470528837
5.424,2.215587984
5.426,2.080619296
5.428,2.005636692
5.43,1.975643651
5.432,2.800452295
5.434,2.71047317
5.436,2.830445337
5.438,3.160368794
5.44,2.875434899
5.442,2.665483608
5.444,2.320563629
5.446,2.095615817
5.448,1.915657567
5.45,2.365553192
5.452,2.440535796
5.454,2.665483608
5.456,2.980410545
5.458,2.875434899
5.46,2.755462733
5.462,2.500521879
5.464,1.975643651
5.466,2.14060538
5.468,1.990640171
5.47,2.200591463
5.472,2.470528837
5.474,2.530514921
5.476,2.860438378
5.478,3.160368794
5.48,3.145372274
5.482,2.365553192
5.484,2.125608859
5.486,2.065622776
5.488,1.900661047
5.49,2.095615817
5.492,2.605497525
5.494,2.680480129
5.496,3.100382711
5.498,3.250347919
5.5,2.830445337
5.502,2.485525358
5.504,2.455532317
5.506,2.275574067
5.508,2.305567108
5.51,2.14060538
5.512,2.785455774
5.514,3.025400107
5.516,2.995407066
5.518,3.190361836
5.52,2.935420982
5.522,2.71047317
5.524,2.440535796
5.526,2.14060538
5.528,2.125608859
5.53,2.470528837
5.532,3.025400107
5.534,2.995407066
5.536,3.010403586
5.538,3.355323565
5.54,3.040396628
5.542,2.425539275
5.544,2.14060538
5.546,1.750695839
5.548,1.690709755
5.55,2.305567108
5.552,2.575504483
5.554,2.980410545
5.556,3.025400107
5.558,2.995407066
5.56,2.500521879
5.562,2.14060538
5.564,1.990640171
5.566,2.050626255
5.568,2.260577546
5.57,2.170598421
5.572,2.71047317
5.574,2.800452295
5.576,2.845441857
5.578,2.920424462
5.58,2.695476649
5.582,2.410542754
5.584,2.1556019
5.586,1.750695839
5.588,1.690709755
5.59,2.110612338
5.592,2.410542754
5.594,2.995407066
5.596,3.055393149
5.598,2.815448816
5.6,2.620494045
5.602,2.575504483
5.604,1.885664526
5.606,1.915657567
5.608,1.840674963
5.61,2.200591463
5.612,2.275574067
5.614,2.785455774
5.616,2.920424462
5.618,2.770459253
5.62,2.695476649
5.622,2.395546233
5.624,2.095615817
5.626,1.930654088
5.628,1.990640171
5.63,2.065622776
5.632,2.545511441
5.634,2.605497525
5.636,2.965414024
5.638,3.07038967
5.64,2.950417503
5.642,2.380549712
5.644,2.305567108
5.646,1.945650609
5.648,1.660716714
5.65,2.320563629
5.652,2.830445337
5.654,3.685247023
5.656,3.805219189
5.658,3.82021571
5.66,3.475295731
5.662,3.490292252
5.664,3.160368794
5.666,3.415309648
5.668,3.865205272
5.67,3.610264419
5.672,4.045163522
5.674,3.985177439
5.676,3.715240064
5.678,3.535281815
5.68,2.71047317
5.682,2.005636692
5.684,1.900661047
5.686,1.690709755
5.688,1.690709755
5.69,1.870668005
5.692,2.035629734
5.694,1.900661047
5.696,2.350556671
5.698,2.035629734
5.7,1.930654088
5.702,1.885664526
5.704,1.285803694
5.706,1.360786298
5.708,1.765692359
5.71,1.915657567
5.712,2.740466212
5.714,2.680480129
5.716,2.920424462
5.718,2.770459253
5.72,2.920424462
5.722,2.33556015
5.724,1.915657567
5.726,1.900661047
5.728,2.125608859
5.73,2.33556015
5.732,2.620494045
5.734,2.785455774
5.736,2.950417503
5.738,2.560507962
5.74,2.590501004
5.742,2.290570588
5.744,2.170598421
5.746,2.080619296
5.748,2.425539275
5.75,2.305567108
5.752,2.71047317
5.754,3.040396628
5.756,2.950417503
5.758,2.875434899
5.76,2.650487087
5.762,2.33556015
5.764,2.005636692
5.766,2.095615817
5.768,2.1556019
5.77,2.590501004
5.772,3.040396628
5.774,2.71047317
5.776,3.145372274
5.778,2.860438378
5.78,2.665483608
5.782,2.275574067
5.784,2.095615817
5.786,2.260577546
5.788,2.530514921
5.79,2.665483608
5.792,2.935420982
5.794,3.160368794
5.796,3.07038967
5.798,2.965414024
5.8,2.725469691
5.802,2.485525358
5.804,2.050626255
5.806,2.230584504
5.808,2.635490566
5.81,2.530514921
5.812,2.875434899
5.814,2.905427941
5.816,3.025400107
5.818,3.44530269
5.82,3.010403586
5.822,2.410542754
5.824,2.260577546
5.826,2.125608859
5.828,2.455532317
5.83,2.680480129
5.832,3.055393149
5.834,3.340327044
5.836,3.235351398
5.838,3.130375753
5.84,2.770459253
5.842,2.545511441
5.844,2.440535796
5.846,2.470528837
5.848,2.620494045
5.85,3.07038967
5.852,3.490292252
5.854,3.595267898
5.856,3.565274856
5.858,3.325330523
5.86,2.905427941
5.862,2.470528837
5.864,2.560507962
5.866,2.665483608
5.868,2.800452295
5.87,3.370320086
5.872,3.790222668
5.874,4.01517048
5.876,3.940187876
5.878,3.865205272
5.88,3.340327044
5.882,3.07038967
5.884,3.250347919
5.886,3.220354878
5.888,3.340327044
5.89,3.805219189
5.892,3.910194835
5.894,4.210125251
5.896,4.105149605
5.898,4.00017396
5.9,3.745233106
5.902,3.325330523
5.904,3.115379232
5.906,3.355323565
5.908,3.865205272
5.91,4.270111334
5.912,4.495059146
5.914,4.540048709
5.916,4.75
5.918,4.390083501
5.92,3.940187876
5.922,3.64025746
5.924,3.370320086
5.926,3.340327044
5.928,3.700243543
5.93,3.895198314
5.932,4.150139168
5.934,4.345093938
5.936,4.495059146
5.938,4.030167001
5.94,3.700243543
5.942,3.655253981
5.944,3.08538619
5.946,3.130375753
5.948,3.325330523
5.95,3.745233106
5.952,3.985177439
5.954,3.790222668
5.956,3.505288773
5.958,3.685247023
5.96,3.190361836
5.962,2.620494045
5.964,2.635490566
5.966,2.560507962
5.968,2.785455774
5.97,2.950417503
5.972,3.580271377
5.974,3.310334003
5.976,3.175365315
5.978,3.100382711
5.98,2.410542754
5.982,2.230584504
5.984,2.33556015
5.986,2.560507962
5.988,2.740466212
5.99,2.980410545
5.992,3.115379232
5.994,3.250347919
5.996,3.100382711
5.998,2.845441857
6,2.560507962
6.002,2.095615817
6.004,1.990640171
6.006,2.380549712
6.008,2.500521879
6.01,2.725469691
6.012,3.130375753
6.014,3.07038967
6.016,2.935420982
6.018,2.725469691
6.02,2.365553192
6.022,2.33556015
6.024,2.005636692
6.026,2.380549712
6.028,2.635490566
6.03,2.740466212
6.032,3.430306169
6.034,3.145372274
6.036,2.89043142
6.038,2.485525358
6.04,2.395546233
6.042,2.110612338
6.044,1.96064713
6.046,2.125608859
6.048,2.815448816
6.05,3.160368794
6.052,3.040396628
6.054,3.190361836
6.056,2.905427941
6.058,2.695476649
6.06,2.500521879
6.062,2.065622776
6.064,1.750695839
6.066,2.410542754
6.068,2.560507962
6.07,2.905427941
6.072,3.040396628
6.074,3.07038967
6.076,2.965414024
6.078,2.545511441
6.08,2.5155184
6.082,2.395546233
6.084,2.275574067
6.086,2.260577546
6.088,2.590501004
6.09,2.980410545
6.092,2.920424462
6.094,3.115379232
6.096,3.010403586
6.098,2.635490566
6.1,2.395546233
6.102,2.275574067
6.104,2.080619296
6.106,2.080619296
6.108,2.620494045
6.11,3.07038967
6.112,3.07038967
6.114,3.025400107
6.116,2.980410545
6.118,2.71047317
6.12,2.230584504
6.122,2.185594942
6.124,2.800452295
6.126,2.33556015
6.128,2.755462733
6.13,2.815448816
6.132,2.695476649
6.134,2.860438378
6.136,2.545511441
6.138,2.560507962
6.14,2.395546233
6.142,2.005636692
6.144,2.095615817
6.146,2.275574067
6.148,2.590501004
6.15,2.830445337
6.152,2.950417503
6.154,2.89043142
6.156,2.755462733
6.158,2.770459253
6.16,2.275574067
6.162,2.125608859
6.164,2.215587984
6.166,2.470528837
6.168,2.365553192
6.17,2.665483608
6.172,2.800452295
6.174,2.935420982
6.176,2.800452295
6.178,2.485525358
6.18,2.200591463
6.182,1.990640171
6.184,1.915657567
6.186,2.245581025
6.188,2.545511441
6.19,2.920424462
6.192,3.205358357
6.194,2.860438378
6.196,2.770459253
6.198,2.350556671
6.2,1.945650609
6.202,1.735699318
6.204,2.110612338
6.206,2.5155184
6.208,2.425539275
6.21,2.980410545
6.212,3.280340961
6.214,2.965414024
6.216,2.935420982
6.218,2.500521879
6.22,1.900661047
6.222,2.125608859
6.224,2.050626255
6.226,2.350556671
6.228,2.620494045
6.23,2.950417503
6.232,2.845441857
6.234,2.830445337
6.236,2.635490566
6.238,2.455532317
6.24,2.215587984
6.242,1.870668005
6.244,1.990640171
6.246,2.125608859
6.248,2.845441857
6.25,2.785455774
6.252,3.295337482
6.254,2.905427941
6.256,2.590501004
6.258,2.290570588
6.26,1.750695839
6.262,2.095615817
6.264,2.320563629
6.266,2.290570588
6.268,2.5155184
6.27,2.860438378
6.272,3.025400107
6.274,2.89043142
6.276,2.620494045
6.278,2.080619296
6.28,1.825678443
6.282,1.945650609
6.284,2.1556019
6.286,2.110612338
6.288,2.500521879
6.29,2.980410545
6.292,2.980410545
6.294,2.845441857
6.296,2.785455774
6.298,2.275574067
6.3,2.020633213
6.302,2.020633213
6.304,2.050626255
6.306,2.320563629
6.308,2.755462733
6.31,2.71047317
6.312,2.935420982
6.314,2.725469691
6.316,2.680480129
6.318,2.455532317
6.32,2.095615817
6.322,2.035629734
6.324,2.215587984
6.326,2.5155184
6.328,2.785455774
6.33,3.040396628
6.332,2.815448816
6.334,2.740466212
6.336,2.650487087
6.338,2.725469691
6.34,2.185594942
6.342,1.840674963
6.344,1.975643651
6.346,2.230584504
6.348,2.680480129
6.35,3.08538619
6.352,2.920424462
6.354,2.755462733
6.356,2.755462733
6.358,2.485525358
6.36,2.170598421
6.362,2.050626255
6.364,2.065622776
6.366,2.425539275
6.368,2.785455774
6.37,3.025400107
6.372,3.340327044
6.374,2.89043142
6.376,2.215587984
6.378,1.840674963
6.38,1.915657567
6.382,1.915657567
6.384,2.275574067
6.386,2.380549712
6.388,2.590501004
6.39,3.100382711
6.392,3.115379232
6.394,2.740466212
6.396,2.590501004
6.398,2.035629734
6.4,1.900661047
6.402,1.930654088
6.404,2.1556019
6.406,2.590501004
6.408,2.980410545
6.41,2.785455774
6.412,2.875434899
6.414,2.965414024
6.416,2.725469691
6.418,2.260577546
6.42,2.14060538
6.422,2.1556019
6.424,2.1556019
6.426,2.635490566
6.428,3.160368794
6.43,3.010403586
6.432,2.815448816
6.434,2.695476649
6.436,2.275574067
6.438,2.33556015
6.44,1.675713235
6.442,2.5155184
6.444,2.320563629
6.446,2.245581025
6.448,2.725469691
6.45,3.040396628
6.452,2.950417503
6.454,2.875434899
6.456,2.590501004
6.458,2.230584504
6.46,2.005636692
6.462,2.14060538
6.464,2.110612338
6.466,2.500521879
6.468,2.860438378
6.47,2.905427941
6.472,2.785455774
6.474,2.830445337
6.476,2.470528837
6.478,2.050626255
6.48,1.990640171
6.482,1.900661047
6.484,2.020633213
6.486,2.665483608
6.488,2.845441857
6.49,2.875434899
6.492,2.815448816
6.494,2.860438378
6.496,2.530514921
6.498,2.275574067
6.5,2.020633213
6.502,2.230584504
6.504,2.365553192
6.506,2.635490566
6.508,2.935420982
6.51,3.26534444
6.512,2.920424462
6.514,3.010403586
6.516,2.860438378
6.518,2.095615817
6.52,1.900661047
6.522,2.320563629
6.524,2.695476649
6.526,2.89043142
6.528,2.845441857
6.53,2.815448816
6.532,2.995407066
6.534,2.830445337
6.536,2.5155184
6.538,2.290570588
6.54,2.33556015
6.542,2.185594942
6.544,2.500521879
6.546,2.89043142
6.548,3.220354878
6.55,3.550278335
6.552,3.115379232
6.554,2.800452295
6.556,2.365553192
6.558,2.170598421
6.56,1.930654088
6.562,2.065622776
6.564,1.96064713
6.566,2.725469691
6.568,2.905427941
6.57,2.935420982
6.572,2.950417503
6.574,2.725469691
6.576,2.185594942
6.578,2.1556019
6.58,1.885664526
6.582,2.065622776
6.584,2.395546233
6.586,2.71047317
6.588,2.965414024
6.59,3.010403586
6.592,2.410542754
6.594,2.785455774
6.596,2.215587984
6.598,1.885664526
6.6,1.825678443
6.602,2.14060538
6.604,2.395546233
6.606,2.725469691
6.608,2.785455774
6.61,3.100382711
6.612,2.665483608
6.614,2.560507962
6.616,2.185594942
6.618,2.200591463
6.62,1.870668005
6.622,2.080619296
6.624,2.350556671
6.626,2.800452295
6.628,2.740466212
6.63,2.680480129
6.632,2.575504483
6.634,2.530514921
6.636,2.050626255
6.638,1.990640171
6.64,1.855671484
6.642,2.1556019
6.644,2.245581025
6.646,2.650487087
6.648,3.100382711
6.65,2.905427941
6.652,2.695476649
6.654,2.845441857
6.656,2.065622776
6.658,1.945650609
6.66,1.630723672
6.662,2.095615817
6.664,2.380549712
6.666,3.490292252
6.668,3.655253981
6.67,3.400313127
6.672,3.700243543
6.674,3.430306169
6.676,3.310334003
6.678,3.310334003
6.68,3.400313127
6.682,3.715240064
6.684,3.790222668
6.686,3.82021571
6.688,3.805219189
6.69,3.460299211
6.692,3.190361836
6.694,2.71047317
6.696,2.320563629
6.698,1.630723672
6.7,1.570737589
6.702,1.690709755
6.704,1.810681922
6.706,2.035629734
6.708,2.095615817
6.71,2.170598421
6.712,2.095615817
6.714,1.930654088
6.716,1.60073063
6.718,1.510751506
6.72,1.525748026
6.722,1.735699318
6.724,2.1556019
6.726,2.530514921
6.728,2.755462733
6.73,2.665483608
6.732,2.665483608
6.734,2.245581025
6.736,2.080619296
6.738,1.735699318
6.74,1.900661047
6.742,2.110612338
6.744,2.620494045
6.746,2.860438378
6.748,2.770459253
6.75,3.100382711
6.752,2.770459253
6.754,2.095615817
6.756,2.590501004
6.758,2.170598421
6.76,1.96064713
6.762,1.840674963
6.764,2.320563629
6.766,2.560507962
6.768,2.905427941
6.77,2.680480129
6.772,2.800452295
6.774,2.320563629
6.776,2.260577546
6.778,2.245581025
6.78,2.1556019
6.782,2.080619296
6.784,2.605497525
6.786,2.785455774
6.788,2.89043142
6.79,2.920424462
6.792,2.770459253
6.794,2.440535796
6.796,2.050626255
6.798,1.765692359
6.8,2.095615817
6.802,2.260577546
6.804,2.620494045
6.806,2.740466212
6.808,2.980410545
6.81,3.07038967
6.812,2.860438378
6.814,2.440535796
6.816,2.095615817
6.818,1.825678443
6.82,1.990640171
6.822,2.260577546
6.824,2.725469691
6.826,3.055393149
6.828,3.025400107
6.83,3.115379232
6.832,2.905427941
6.834,2.605497525
6.836,2.425539275
6.838,2.230584504
6.84,2.170598421
6.842,2.5155184
6.844,2.770459253
6.846,3.130375753
6.848,3.325330523
6.85,3.07038967
6.852,2.920424462
6.854,2.410542754
6.856,2.350556671
6.858,2.275574067
6.86,2.365553192
6.862,2.605497525
6.864,3.010403586
6.866,3.145372274
6.868,3.130375753
6.87,3.26534444
6.872,3.295337482
6.874,2.605497525
6.876,2.410542754
6.878,2.5155184
6.88,2.5155184
6.882,2.740466212
6.884,3.460299211
6.886,3.550278335
6.888,3.82021571
6.89,3.580271377
6.892,3.415309648
6.894,2.995407066
6.896,2.695476649
6.898,2.755462733
6.9,2.905427941
6.902,3.26534444
6.904,3.580271377
6.906,3.775226148
6.908,4.19512873
6.91,4.19512873
6.912,3.655253981
6.914,3.295337482
6.916,3.160368794
6.918,3.130375753
6.92,3.250347919
6.922,3.580271377
6.924,4.135142647
6.926,4.165135689
6.928,4.300104376
6.93,4.240118293
6.932,3.985177439
6.934,3.685247023
6.936,3.280340961
6.938,3.385316607
6.94,3.355323565
6.942,3.520285294
6.944,3.775226148
6.946,4.240118293
6.948,4.690013917
6.95,4.255114813
6.952,3.775226148
6.954,2.980410545
6.956,3.130375753
6.958,2.740466212
6.96,2.965414024
6.962,3.475295731
6.964,3.595267898
6.966,3.700243543
6.968,3.730236585
6.97,3.385316607
6.972,3.220354878
6.974,2.950417503
6.976,2.605497525
6.978,2.245581025
6.98,2.575504483
6.982,2.770459253
6.984,3.07038967
6.986,3.250347919
6.988,3.400313127
6.99,3.205358357
6.992,2.830445337
6.994,2.380549712
6.996,2.320563629
6.998,2.215587984
7,2.185594942
7.002,2.485525358
7.004,2.635490566
7.006,2.935420982
7.008,3.115379232
7.01,2.965414024
7.012,2.680480129
7.014,2.170598421
7.016,2.005636692
7.018,2.125608859
7.02,2.245581025
7.022,2.800452295
7.024,2.785455774
7.026,2.740466212
7.028,3.115379232
7.03,2.755462733
7.032,2.380549712
7.034,1.900661047
7.036,2.185594942
7.038,2.125608859
7.04,2.065622776
7.042,2.485525358
7.044,3.025400107
7.046,2.830445337
7.048,2.830445337
7.05,2.830445337
7.052,2.365553192
7.054,1.900661047
7.056,1.96064713
7.058,2.14060538
7.06,2.005636692
7.062,2.33556015
7.064,3.250347919
7.066,3.415309648
7.068,2.755462733
7.07,2.455532317
7.072,2.485525358
7.074,2.125608859
7.076,1.720702797
7.078,2.095615817
7.08,2.290570588
7.082,2.71047317
7.084,3.025400107
7.086,3.08538619
7.088,2.950417503
7.09,2.665483608
7.092,2.080619296
7.094,2.080619296
7.096,1.870668005
7.098,1.885664526
7.1,2.125608859
7.102,2.530514921
7.104,3.190361836
7.106,3.115379232
7.108,2.800452295
7.11,2.935420982
7.112,2.170598421
7.114,1.990640171
7.116,2.035629734
7.118,2.005636692
7.12,2.125608859
7.122,2.440535796
7.124,2.800452295
7.126,3.07038967
7.128,2.755462733
7.13,2.455532317
7.132,2.425539275
7.134,2.1556019
7.136,2.260577546
7.138,1.885664526
7.14,2.1556019
7.142,2.830445337
7.144,2.635490566
7.146,2.815448816
7.148,2.770459253
7.15,2.815448816
7.152,2.71047317
7.154,2.275574067
7.156,2.005636692
7.158,1.750695839
7.16,2.095615817
7.162,2.605497525
7.164,2.815448816
7.166,2.5155184
7.168,3.08538619
7.17,2.500521879
7.172,2.14060538
7.174,2.050626255
7.176,1.735699318
7.178,1.885664526
7.18,2.095615817
7.182,2.635490566
7.184,2.905427941
7.186,3.115379232
7.188,2.830445337
7.19,2.695476649
7.192,2.185594942
7.194,1.645720193
7.196,1.60073063
7.198,1.855671484
7.2,2.245581025
7.202,2.785455774
7.204,2.860438378
7.206,2.980410545
7.208,2.650487087
7.21,2.590501004
7.212,2.020633213
7.214,1.855671484
7.216,1.825678443
7.218,2.095615817
7.22,2.305567108
7.222,2.680480129
7.224,3.040396628
7.226,3.145372274
7.228,2.875434899
7.23,2.365553192
7.232,2.110612338
7.234,1.96064713
7.236,1.975643651
7.238,1.78068888
7.24,2.350556671
7.242,2.560507962
7.244,2.545511441
7.246,2.950417503
7.248,2.860438378
7.25,2.590501004
7.252,2.095615817
7.254,1.735699318
7.256,1.840674963
7.258,1.915657567
7.26,2.1556019
7.262,2.71047317
7.264,2.665483608
7.266,2.875434899
7.268,2.71047317
7.27,2.080619296
7.272,2.035629734
7.274,2.095615817
7.276,1.885664526
7.278,1.675713235
7.28,2.125608859
7.282,2.590501004
7.284,2.845441857
7.286,2.740466212
7.288,2.650487087
7.29,2.425539275
7.292,2.260577546
7.294,2.005636692
7.296,1.930654088
7.298,2.33556015
7.3,2.365553192
7.302,2.33556015
7.304,2.725469691
7.306,2.935420982
7.308,2.500521879
7.31,2.470528837
7.312,1.885664526
7.314,1.690709755
7.316,1.825678443
7.318,2.005636692
7.32,2.365553192
7.322,3.040396628
7.324,3.26534444
7.326,2.965414024
7.328,2.740466212
7.33,2.110612338
7.332,1.705706276
7.334,1.735699318
7.336,1.885664526
7.338,2.14060538
7.34,2.185594942
7.342,2.71047317
7.344,2.920424462
7.346,2.695476649
7.348,2.680480129
7.35,2.305567108
7.352,2.050626255
7.354,1.930654088
7.356,1.750695839
7.358,1.840674963
7.36,2.410542754
7.362,2.770459253
7.364,2.830445337
7.366,2.605497525
7.368,2.695476649
7.37,2.350556671
7.372,1.945650609
7.374,1.855671484
7.376,1.96064713
7.378,2.080619296
7.38,2.680480129
7.382,2.695476649
7.384,2.860438378
7.386,2.815448816
7.388,2.665483608
7.39,2.170598421
7.392,1.735699318
7.394,1.630723672
7.396,1.720702797
7.398,2.215587984
7.4,2.725469691
7.402,2.995407066
7.404,2.785455774
7.406,2.875434899
7.408,2.425539275
7.41,2.260577546
7.412,1.735699318
7.414,1.345789777
7.416,2.260577546
7.418,1.930654088
7.42,2.33556015
7.422,2.620494045
7.424,2.740466212
7.426,2.815448816
7.428,2.590501004
7.43,2.260577546
7.432,1.735699318
7.434,1.825678443
7.436,2.065622776
7.438,2.095615817
7.44,2.605497525
7.442,2.455532317
7.444,2.845441857
7.446,2.830445337
7.448,2.590501004
7.45,2.410542754
7.452,1.990640171
7.454,1.78068888
7.456,1.630723672
7.458,2.14060538
7.46,2.590501004
7.462,2.620494045
7.464,2.845441857
7.466,2.605497525
7.468,2.590501004
7.47,2.095615817
7.472,1.885664526
7.474,1.825678443
7.476,1.990640171
7.478,2.14060538
7.48,2.530514921
7.482,2.785455774
7.484,2.680480129
7.486,2.995407066
7.488,2.425539275
7.49,2.305567108
7.492,1.885664526
7.494,1.795685401
7.496,1.96064713
7.498,2.395546233
7.5,2.605497525
7.502,2.485525358
7.504,2.5155184
7.506,2.725469691
7.508,2.695476649
7.51,2.110612338
7.512,1.675713235
7.514,1.750695839
7.516,1.870668005
7.518,2.260577546
7.52,2.635490566
7.522,2.71047317
7.524,2.935420982
7.526,2.980410545
7.528,2.725469691
7.53,2.350556671
7.532,1.78068888
7.534,2.020633213
7.536,2.065622776
7.538,2.1556019
7.54,2.740466212
7.542,3.250347919
7.544,2.995407066
7.546,2.935420982
7.548,2.590501004
7.55,2.305567108
7.552,2.200591463
7.554,1.750695839
7.556,2.080619296
7.558,2.320563629
7.56,2.740466212
7.562,2.89043142
7.564,2.71047317
7.566,2.545511441
7.568,2.635490566
7.57,2.545511441
7.572,2.065622776
7.574,1.900661047
7.576,1.96064713
7.578,2.1556019
7.58,2.800452295
7.582,2.905427941
7.584,2.665483608
7.586,2.425539275
7.588,2.425539275
7.59,2.035629734
7.592,1.78068888
7.594,1.945650609
7.596,2.095615817
7.598,2.290570588
7.6,2.620494045
7.602,2.560507962
7.604,2.860438378
7.606,2.680480129
7.608,2.365553192
7.61,1.930654088
7.612,1.810681922
7.614,1.840674963
7.616,2.095615817
7.618,2.485525358
7.62,2.410542754
7.622,2.605497525
7.624,2.905427941
7.626,2.635490566
7.628,2.185594942
7.63,1.915657567
7.632,1.78068888
7.634,1.690709755
7.636,1.825678443
7.638,1.795685401
7.64,2.470528837
7.642,2.845441857
7.644,2.71047317
7.646,2.545511441
7.648,2.170598421
7.65,2.305567108
7.652,1.900661047
7.654,1.855671484
7.656,2.200591463
7.658,2.545511441
7.66,2.590501004
7.662,2.785455774
7.664,2.815448816
7.666,2.5155184
7.668,2.530514921
7.67,2.110612338
7.672,2.185594942
7.674,2.395546233
7.676,2.740466212
7.678,3.26534444
7.68,3.955184397
7.682,3.760229627
7.684,4.225121772
7.686,4.405080021
7.688,3.730236585
7.69,3.310334003
7.692,2.965414024
7.694,2.830445337
7.696,2.620494045
7.698,2.680480129
7.7,2.845441857
7.702,2.830445337
7.704,2.440535796
7.706,2.125608859
7.708,1.765692359
7.71,1.120841965
7.712,0.910890673
7.714,1.360786298
7.716,1.360786298
7.718,1.525748026
7.72,1.900661047
7.722,2.170598421
7.724,2.410542754
7.726,2.395546233
7.728,1.840674963
7.73,1.615727151
7.732,1.690709755
7.734,1.855671484
7.736,1.855671484
7.738,2.605497525
7.74,2.71047317
7.742,2.680480129
7.744,2.740466212
7.746,2.755462733
7.748,2.125608859
7.75,2.005636692
7.752,1.705706276
7.754,1.810681922
7.756,1.96064713
7.758,2.410542754
7.76,2.71047317
7.762,2.860438378
7.764,2.830445337
7.766,2.920424462
7.768,2.125608859
7.77,1.660716714
7.772,2.020633213
7.774,2.065622776
7.776,2.110612338
7.778,2.635490566
7.78,2.830445337
7.782,2.755462733
7.784,2.860438378
7.786,2.650487087
7.788,2.035629734
7.79,1.645720193
7.792,1.945650609
7.794,2.065622776
7.796,2.350556671
7.798,2.815448816
7.8,2.770459253
7.802,2.980410545
7.804,2.815448816
7.806,2.605497525
7.808,2.110612338
7.81,1.78068888
7.812,1.900661047
7.814,2.065622776
7.816,2.14060538
7.818,2.470528837
7.82,2.770459253
7.822,2.89043142
7.824,2.755462733
7.826,2.785455774
7.828,2.260577546
7.83,1.870668005
7.832,1.660716714
7.834,2.170598421
7.836,2.290570588
7.838,2.770459253
7.84,2.830445337
7.842,2.785455774
7.844,2.845441857
7.846,2.530514921
7.848,2.365553192
7.85,2.005636692
7.852,2.005636692
7.854,2.110612338
7.856,2.605497525
7.858,2.905427941
7.86,3.340327044
7.862,3.370320086
7.864,3.26534444
7.866,2.410542754
7.868,2.365553192
7.87,2.065622776
7.872,2.215587984
7.874,2.425539275
7.876,2.905427941
7.878,3.025400107
7.88,3.340327044
7.882,3.790222668
7.884,3.115379232
7.886,2.815448816
7.888,2.260577546
7.89,2.33556015
7.892,2.590501004
7.894,2.650487087
7.896,2.815448816
7.898,3.550278335
7.9,3.850208752
7.902,3.865205272
7.904,3.730236585
7.906,3.220354878
7.908,2.845441857
7.91,2.635490566
7.912,2.815448816
7.914,3.08538619
7.916,3.310334003
7.918,3.655253981
7.92,4.045163522
7.922,3.805219189
7.924,3.805219189
7.926,3.415309648
7.928,3.205358357
7.93,3.26534444
7.932,3.100382711
7.934,3.550278335
7.936,3.790222668
7.938,3.655253981
7.94,4.180132209
7.942,4.150139168
7.944,3.880201793
7.946,3.700243543
7.948,3.280340961
7.95,2.995407066
7.952,3.07038967
7.954,3.520285294
7.956,3.580271377
7.958,3.715240064
7.96,4.315100897
7.962,4.255114813
7.964,3.625260939
7.966,3.115379232
7.968,2.920424462
7.97,2.650487087
7.972,2.935420982
7.974,3.040396628
7.976,2.860438378
7.978,3.490292252
7.98,3.550278335
7.982,3.325330523
7.984,3.07038967
7.986,2.575504483
7.988,2.275574067
7.99,2.33556015
7.992,2.485525358
7.994,2.5155184
7.996,2.815448816
7.998,2.725469691
8,2.815448816
8.002,2.995407066
8.004,2.665483608
8.006,2.245581025
8.008,1.870668005
8.01,1.58573411
8.012,2.050626255
8.014,2.245581025
8.016,2.350556671
8.018,2.860438378
8.02,2.770459253
8.022,2.950417503
8.024,2.33556015
8.026,2.1556019
8.028,1.840674963
8.03,1.675713235
8.032,1.810681922
8.034,2.095615817
8.036,2.470528837
8.038,2.485525358
8.04,2.395546233
8.042,2.575504483
8.044,2.800452295
8.046,2.215587984
8.048,2.1556019
8.05,1.720702797
8.052,1.96064713
8.054,2.065622776
8.056,2.350556671
8.058,2.740466212
8.06,2.860438378
8.062,2.800452295
8.064,2.620494045
8.066,2.320563629
8.068,1.555741068
8.07,1.810681922
8.072,1.765692359
8.074,1.945650609
8.076,2.260577546
8.078,2.755462733
8.08,2.89043142
8.082,2.920424462
8.084,2.5155184
8.086,1.930654088
8.088,1.435768902
8.09,1.555741068
8.092,2.095615817
8.094,2.200591463
8.096,2.740466212
8.098,2.770459253
8.1,2.740466212
8.102,2.350556671
8.104,2.485525358
8.106,1.870668005
8.108,1.540744547
8.11,1.570737589
8.112,2.005636692
8.114,2.110612338
8.116,2.71047317
8.118,2.530514921
8.12,2.815448816
8.122,2.785455774
8.124,2.215587984
8.126,2.065622776
8.128,2.050626255
8.13,1.540744547
8.132,1.855671484
8.134,2.260577546
8.136,2.740466212
8.138,2.620494045
8.14,2.500521879
8.142,2.260577546
8.144,2.395546233
8.146,1.855671484
8.148,1.840674963
8.15,1.690709755
8.152,1.78068888
8.154,2.485525358
8.156,2.620494045
8.158,2.590501004
8.16,2.500521879
8.162,2.770459253
8.164,2.1556019
8.166,2.170598421
8.168,1.60073063
8.17,1.855671484
8.172,1.750695839
8.174,2.020633213
8.176,2.230584504
8.178,2.815448816
8.18,2.5155184
8.182,2.5155184
8.184,2.110612338
8.186,1.690709755
8.188,1.540744547
8.19,1.555741068
8.192,1.78068888
8.194,2.095615817
8.196,2.560507962
8.198,2.725469691
8.2,2.560507962
8.202,2.410542754
8.204,1.990640171
8.206,1.525748026
8.208,1.360786298
8.21,1.495754985
8.212,1.765692359
8.214,2.305567108
8.216,2.350556671
8.218,2.5155184
8.22,2.800452295
8.222,2.380549712
8.224,2.005636692
8.226,1.690709755
8.228,1.675713235
8.23,1.465761943
8.232,1.720702797
8.234,2.035629734
8.236,2.110612338
8.238,2.455532317
8.24,2.935420982
8.242,2.275574067
8.244,1.630723672
8.246,1.555741068
8.248,1.510751506
8.25,1.840674963
8.252,1.810681922
8.254,2.320563629
8.256,2.620494045
8.258,2.800452295
8.26,2.440535796
8.262,2.215587984
8.264,1.78068888
8.266,1.375782818
8.268,1.465761943
8.27,1.615727151
8.272,1.855671484
8.274,2.050626255
8.276,2.290570588
8.278,2.380549712
8.28,2.395546233
8.282,2.230584504
8.284,1.885664526
8.286,1.525748026
8.288,1.435768902
8.29,1.375782818
8.292,1.60073063
8.294,2.065622776
8.296,2.410542754
8.298,2.410542754
8.3,2.365553192
8.302,2.395546233
8.304,1.630723672
8.306,1.21082109
8.308,1.360786298
8.31,1.645720193
8.312,1.795685401
8.314,2.185594942
8.316,2.350556671
8.318,2.230584504
8.32,2.230584504
8.322,2.395546233
8.324,1.735699318
8.326,1.810681922
8.328,1.510751506
8.33,1.495754985
8.332,1.60073063
8.334,1.915657567
8.336,2.260577546
8.338,2.605497525
8.34,2.71047317
8.342,2.440535796
8.344,1.840674963
8.346,1.720702797
8.348,1.180828048
8.35,1.360786298
8.352,1.645720193
8.354,2.200591463
8.356,2.185594942
8.358,2.185594942
8.36,2.305567108
8.362,2.110612338
8.364,1.675713235
8.366,1.420772381
8.368,1.555741068
8.37,1.495754985
8.372,1.795685401
8.374,2.125608859
8.376,2.125608859
8.378,2.33556015
8.38,1.930654088
8.382,1.930654088
8.384,1.705706276
8.386,1.525748026
8.388,1.285803694
8.39,1.435768902
8.392,1.795685401
8.394,1.870668005
8.396,2.695476649
8.398,2.575504483
8.4,2.200591463
8.402,2.050626255
8.404,1.60073063
8.406,1.450765422
8.408,1.150835006
8.41,1.435768902
8.412,1.765692359
8.414,2.635490566
8.416,2.410542754
8.418,2.500521879
8.42,2.14060538
8.422,1.855671484
8.424,1.840674963
8.426,1.510751506
8.428,1.135838485
8.43,1.540744547
8.432,1.750695839
8.434,2.200591463
8.436,2.260577546
8.438,2.665483608
8.44,2.455532317
8.442,2.290570588
8.444,1.630723672
8.446,1.375782818
8.448,1.21082109
8.45,1.40577586
8.452,1.885664526
8.454,2.215587984
8.456,2.260577546
8.458,2.5155184
8.46,2.33556015
8.462,1.645720193
8.464,1.480758464
8.466,1.435768902
8.468,1.270807173
8.47,1.690709755
8.472,2.170598421
8.474,2.095615817
8.476,2.125608859
8.478,2.185594942
8.48,1.870668005
8.482,1.630723672
8.484,1.615727151
8.486,1.555741068
8.488,1.510751506
8.49,1.750695839
8.492,2.1556019
8.494,2.425539275
8.496,2.455532317
8.498,2.815448816
8.5,2.365553192
8.502,1.990640171
8.504,1.720702797
8.506,1.480758464
8.508,1.435768902
8.51,1.615727151
8.512,2.185594942
8.514,2.455532317
8.516,2.530514921
8.518,2.410542754
8.52,2.230584504
8.522,2.275574067
8.524,2.050626255
8.526,1.735699318
8.528,1.285803694
8.53,1.60073063
8.532,2.245581025
8.534,2.380549712
8.536,2.650487087
8.538,2.350556671
8.54,1.990640171
8.542,1.840674963
8.544,1.450765422
8.546,1.270807173
8.548,1.375782818
8.55,1.540744547
8.552,1.675713235
8.554,2.320563629
8.556,2.33556015
8.558,2.290570588
8.56,1.975643651
8.562,1.435768902
8.564,1.60073063
8.566,1.240814131
8.568,1.555741068
8.57,1.345789777
8.572,1.750695839
8.574,2.305567108
8.576,2.485525358
8.578,2.395546233
8.58,2.245581025
8.582,1.885664526
8.584,1.495754985
8.586,1.000869798
8.588,1.180828048
8.59,1.570737589
8.592,1.930654088
8.594,2.035629734
8.596,2.290570588
8.598,2.440535796
8.6,2.035629734
8.602,1.735699318
8.604,1.015866319
8.606,1.165831527
8.608,1.300800214
8.61,1.360786298
8.612,2.020633213
8.614,2.170598421
8.616,2.230584504
8.618,2.230584504
8.62,2.035629734
8.622,1.705706276
8.624,1.330793256
8.626,1.135838485
8.628,1.165831527
8.63,1.435768902
8.632,2.065622776
8.634,2.1556019
8.636,2.200591463
8.638,1.990640171
8.64,1.975643651
8.642,1.915657567
8.644,1.735699318
8.646,1.540744547
8.648,1.795685401
8.65,2.005636692
8.652,2.545511441
8.654,2.89043142
8.656,3.355323565
8.658,3.44530269
8.66,3.565274856
8.662,3.26534444
8.664,2.905427941
8.666,2.665483608
8.668,2.470528837
8.67,2.275574067
8.672,2.350556671
8.674,2.500521879
8.676,2.365553192
8.678,1.870668005
8.68,1.495754985
8.682,1.105845444
8.684,0.595963736
8.686,0.85090459
8.688,0.925887194
8.69,0.910890673
8.692,1.390779339
8.694,1.510751506
8.696,1.78068888
8.698,1.705706276
8.7,1.60073063
8.702,1.40577586
8.704,0.775921986
8.706,0.730932424
8.708,1.105845444
8.71,1.465761943
8.712,1.930654088
8.714,2.590501004
8.716,2.200591463
8.718,1.900661047
8.72,1.810681922
8.722,1.390779339
8.724,1.58573411
8.726,1.420772381
8.728,1.495754985
8.73,1.435768902
8.732,2.080619296
8.734,2.215587984
8.736,2.5155184
8.738,2.110612338
8.74,2.020633213
8.742,1.720702797
8.744,1.360786298
8.746,1.195824569
8.748,1.21082109
8.75,1.450765422
8.752,2.095615817
8.754,2.305567108
8.756,2.410542754
8.758,2.260577546
8.76,2.185594942
8.762,1.60073063
8.764,1.255810652
8.766,1.180828048
8.768,1.360786298
8.77,1.630723672
8.772,2.230584504
8.774,2.305567108
8.776,2.305567108
8.778,2.065622776
8.78,1.855671484
8.782,1.450765422
8.784,1.480758464
8.786,1.40577586
8.788,1.510751506
8.79,2.020633213
8.792,2.275574067
8.794,2.33556015
8.796,2.440535796
8.798,2.305567108
8.8,2.065622776
8.802,1.630723672
8.804,1.21082109
8.806,1.420772381
8.808,1.615727151
8.81,2.020633213
8.812,2.485525358
8.814,2.440535796
8.816,2.33556015
8.818,2.215587984
8.82,1.810681922
8.822,1.705706276
8.824,1.705706276
8.826,1.450765422
8.828,1.795685401
8.83,2.1556019
8.832,2.575504483
8.834,2.650487087
8.836,2.740466212
8.838,2.395546233
8.84,1.975643651
8.842,1.78068888
8.844,1.720702797
8.846,1.810681922
8.848,2.035629734
8.85,2.185594942
8.852,2.485525358
8.854,2.770459253
8.856,2.950417503
8.858,2.620494045
8.86,2.425539275
8.862,2.1556019
8.864,1.900661047
8.866,2.215587984
8.868,2.185594942
8.87,2.665483608
8.872,3.08538619
8.874,2.965414024
8.876,3.040396628
8.878,2.995407066
8.88,2.950417503
8.882,2.680480129
8.884,2.260577546
8.886,2.410542754
8.888,2.965414024
8.89,3.205358357
8.892,3.250347919
8.894,3.520285294
8.896,3.400313127
8.898,3.175365315
8.9,2.905427941
8.902,2.545511441
8.904,2.725469691
8.906,2.830445337
8.908,2.89043142
8.91,3.64025746
8.912,3.595267898
8.914,3.985177439
8.916,3.805219189
8.918,3.565274856
8.92,3.280340961
8.922,3.100382711
8.924,2.590501004
8.926,2.680480129
8.928,2.965414024
8.93,3.82021571
8.932,3.520285294
8.934,3.310334003
8.936,3.460299211
8.938,3.415309648
8.94,2.845441857
8.942,2.245581025
8.944,2.260577546
8.946,2.755462733
8.948,2.590501004
8.95,3.145372274
8.952,2.920424462
8.954,2.920424462
8.956,2.935420982
8.958,2.950417503
8.96,2.275574067
8.962,2.035629734
8.964,1.765692359
8.966,1.900661047
8.968,2.020633213
8.97,1.945650609
8.972,2.575504483
8.974,3.280340961
8.976,2.680480129
8.978,2.215587984
8.98,1.870668005
8.982,1.570737589
8.984,1.465761943
8.986,1.615727151
8.988,1.930654088
8.99,2.230584504
8.992,2.440535796
8.994,2.530514921
8.996,2.320563629
8.998,2.1556019
9,1.705706276
9.002,1.495754985
9.004,1.21082109
9.006,1.615727151
9.008,1.58573411
9.01,2.14060538
9.012,2.560507962
9.014,2.575504483
9.016,2.185594942
9.018,1.990640171
9.02,1.96064713
9.022,1.645720193
9.024,1.03086284
9.026,1.375782818
9.028,1.900661047
9.03,2.230584504
9.032,2.470528837
9.034,2.725469691
9.036,2.575504483
9.038,2.14060538
9.04,0.970876757
9.042,1.330793256
9.044,1.570737589
9.046,1.525748026
9.048,1.795685401
9.05,2.125608859
9.052,2.440535796
9.054,2.500521879
9.056,2.320563629
9.058,2.035629734
9.06,1.690709755
9.062,1.495754985
9.064,1.240814131
9.066,1.570737589
9.068,1.96064713
9.07,2.410542754
9.072,2.545511441
9.074,2.695476649
9.076,2.080619296
9.078,1.705706276
9.08,1.570737589
9.082,1.390779339
9.084,1.675713235
9.086,1.705706276
9.088,2.110612338
9.09,2.170598421
9.092,2.260577546
9.094,2.440535796
9.096,2.305567108
9.098,1.915657567
9.1,1.330793256
9.102,1.495754985
9.104,1.540744547
9.106,1.630723672
9.108,1.915657567
9.11,2.14060538
9.112,2.425539275
9.114,2.635490566
9.116,2.380549712
9.118,1.660716714
9.12,1.58573411
9.122,1.540744547
9.124,1.570737589
9.126,1.570737589
9.128,1.78068888
9.13,2.14060538
9.132,2.440535796
9.134,2.530514921
9.136,2.320563629
9.138,1.945650609
9.14,1.480758464
9.142,1.465761943
9.144,1.240814131
9.146,1.450765422
9.148,1.900661047
9.15,2.245581025
9.152,2.305567108
9.154,2.14060538
9.156,2.095615817
9.158,1.945650609
9.16,1.495754985
9.162,1.285803694
9.164,1.300800214
9.166,1.675713235
9.168,2.125608859
9.17,2.410542754
9.172,2.530514921
9.174,2.440535796
9.176,2.065622776
9.178,1.58573411
9.18,1.435768902
9.182,1.240814131
9.184,1.270807173
9.186,1.40577586
9.188,1.750695839
9.19,2.440535796
9.192,2.545511441
9.194,2.305567108
9.196,2.425539275
9.198,1.990640171
9.2,1.360786298
9.202,1.300800214
9.204,1.40577586
9.206,1.525748026
9.208,1.705706276
9.21,2.185594942
9.212,2.230584504
9.214,2.110612338
9.216,2.095615817
9.218,1.390779339
9.22,1.285803694
9.222,1.450765422
9.224,1.525748026
9.226,1.345789777
9.228,1.855671484
9.23,2.1556019
9.232,2.230584504
9.234,2.365553192
9.236,2.230584504
9.238,1.480758464
9.24,1.060855881
9.242,1.21082109
9.244,1.40577586
9.246,1.555741068
9.248,2.065622776
9.25,2.455532317
9.252,2.560507962
9.254,2.035629734
9.256,2.110612338
9.258,1.690709755
9.26,1.360786298
9.262,1.045859361
9.264,1.300800214
9.266,1.540744547
9.268,2.080619296
9.27,2.110612338
9.272,2.290570588
9.274,2.065622776
9.276,1.885664526
9.278,1.360786298
9.28,1.375782818
9.282,1.40577586
9.284,1.360786298
9.286,1.660716714
9.288,2.230584504
9.29,2.275574067
9.292,2.455532317
9.294,2.230584504
9.296,1.870668005
9.298,1.315796735
9.3,1.60073063
9.302,1.345789777
9.304,1.420772381
9.306,1.615727151
9.308,2.080619296
9.31,2.380549712
9.312,2.110612338
9.314,2.14060538
9.316,1.96064713
9.318,1.555741068
9.32,1.510751506
9.322,1.525748026
9.324,1.345789777
9.326,1.645720193
9.328,2.290570588
9.33,2.545511441
9.332,2.320563629
9.334,2.14060538
9.336,1.525748026
9.338,1.22581761
9.34,1.285803694
9.342,1.375782818
9.344,1.40577586
9.346,1.465761943
9.348,2.110612338
9.35,2.410542754
9.352,2.545511441
9.354,2.200591463
9.356,2.005636692
9.358,1.60073063
9.36,1.21082109
9.362,1.195824569
9.364,1.390779339
9.366,1.96064713
9.368,2.215587984
9.37,2.320563629
9.372,2.245581025
9.374,2.215587984
9.376,2.005636692
9.378,1.58573411
9.38,1.360786298
9.382,1.465761943
9.384,1.58573411
9.386,1.900661047
9.388,2.380549712
9.39,2.695476649
9.392,2.620494045
9.394,2.500521879
9.396,1.930654088
9.398,1.675713235
9.4,1.675713235
9.402,1.525748026
9.404,1.450765422
9.406,1.810681922
9.408,2.200591463
9.41,2.455532317
9.412,2.455532317
9.414,2.380549712
9.416,2.14060538
9.418,1.495754985
9.42,1.885664526
9.422,1.510751506
9.424,1.195824569
9.426,1.945650609
9.428,2.425539275
9.43,2.260577546
9.432,2.050626255
9.434,2.305567108
9.436,1.855671484
9.438,1.22581761
9.44,1.240814131
9.442,1.495754985
9.444,1.495754985
9.446,1.915657567
9.448,2.095615817
9.45,2.200591463
9.452,2.095615817
9.454,2.095615817
9.456,2.065622776
9.458,1.570737589
9.46,1.165831527
9.462,1.345789777
9.464,1.540744547
9.466,1.795685401
9.468,1.945650609
9.47,2.170598421
9.472,2.110612338
9.474,2.035629734
9.476,1.615727151
9.478,1.540744547
9.48,1.540744547
9.482,1.510751506
9.484,1.450765422
9.486,1.630723672
9.488,1.795685401
9.49,2.305567108
9.492,2.170598421
9.494,1.990640171
9.496,1.510751506
9.498,1.270807173
9.5,1.570737589
9.502,1.120841965
9.504,1.510751506
9.506,1.825678443
9.508,2.080619296
9.51,2.230584504
9.512,2.080619296
9.514,1.825678443
9.516,1.60073063
9.518,1.465761943
9.52,1.315796735
9.522,1.315796735
9.524,1.675713235
9.526,2.005636692
9.528,2.305567108
9.53,2.530514921
9.532,2.770459253
9.534,2.755462733
9.536,2.635490566
9.538,2.365553192
9.54,2.755462733
9.542,2.875434899
9.544,3.280340961
9.546,3.745233106
9.548,3.550278335
9.55,3.940187876
9.552,3.115379232
9.554,2.5155184
9.556,1.840674963
9.558,1.195824569
9.56,0.880897632
9.562,0.910890673
9.564,0.970876757
9.566,1.390779339
9.568,1.720702797
9.57,1.675713235
9.572,1.345789777
9.574,1.300800214
9.576,0.970876757
9.578,0.236047237
9.58,0.29603332
9.582,0.67094634
9.584,1.105845444
9.586,1.735699318
9.588,2.065622776
9.59,2.14060538
9.592,2.14060538
9.594,1.96064713
9.596,1.435768902
9.598,1.255810652
9.6,1.22581761
9.602,1.465761943
9.604,1.645720193
9.606,2.425539275
9.608,2.035629734
9.61,2.365553192
9.612,1.930654088
9.614,1.645720193
9.616,1.480758464
9.618,1.495754985
9.62,1.690709755
9.622,1.510751506
9.624,1.630723672
9.626,1.900661047
9.628,2.200591463
9.63,2.470528837
9.632,2.080619296
9.634,2.050626255
9.636,1.525748026
9.638,1.240814131
9.64,1.420772381
9.642,1.615727151
9.644,1.855671484
9.646,2.035629734
9.648,2.410542754
9.65,2.260577546
9.652,2.095615817
9.654,1.945650609
9.656,1.555741068
9.658,1.495754985
9.66,1.40577586
9.662,1.435768902
9.664,1.795685401
9.666,2.425539275
9.668,2.635490566
9.67,2.620494045
9.672,2.110612338
9.674,1.840674963
9.676,1.555741068
9.678,1.21082109
9.68,1.495754985
9.682,1.675713235
9.684,1.870668005
9.686,1.990640171
9.688,2.5155184
9.69,2.485525358
9.692,2.290570588
9.694,1.720702797
9.696,1.555741068
9.698,1.525748026
9.7,1.855671484
9.702,1.555741068
9.704,2.020633213
9.706,2.425539275
9.708,2.440535796
9.71,2.485525358
9.712,2.440535796
9.714,2.005636692
9.716,1.720702797
9.718,1.495754985
9.72,1.495754985
9.722,1.825678443
9.724,2.410542754
9.726,2.545511441
9.728,2.875434899
9.73,2.680480129
9.732,2.830445337
9.734,2.485525358
9.736,1.96064713
9.738,1.825678443
9.74,1.735699318
9.742,2.005636692
9.744,2.470528837
9.746,2.740466212
9.748,2.905427941
9.75,3.250347919
9.752,3.145372274
9.754,2.71047317
9.756,2.410542754
9.758,2.14060538
9.76,2.14060538
9.762,2.275574067
9.764,2.920424462
9.766,3.175365315
9.768,3.520285294
9.77,3.655253981
9.772,3.205358357
9.774,2.740466212
9.776,2.560507962
9.778,2.605497525
9.78,2.680480129
9.782,3.220354878
9.784,3.475295731
9.786,3.595267898
9.788,3.745233106
9.79,3.685247023
9.792,3.745233106
9.794,3.010403586
9.796,2.860438378
9.798,2.395546233
9.8,2.800452295
9.802,2.935420982
9.804,3.520285294
9.806,3.655253981
9.808,3.700243543
9.81,3.610264419
9.812,3.175365315
9.814,2.770459253
9.816,2.470528837
9.818,2.5155184
9.82,2.605497525
9.822,2.650487087
9.824,3.235351398
9.826,3.175365315
9.828,3.325330523
9.83,2.950417503
9.832,2.920424462
9.834,2.350556671
9.836,2.005636692
9.838,1.870668005
9.84,2.305567108
9.842,2.215587984
9.844,2.350556671
9.846,3.025400107
9.848,2.980410545
9.85,2.470528837
9.852,2.185594942
9.854,1.900661047
9.856,1.375782818
9.858,1.40577586
9.86,1.615727151
9.862,1.810681922
9.864,2.125608859
9.866,2.245581025
9.868,2.530514921
9.87,2.455532317
9.872,2.290570588
9.874,1.750695839
9.876,1.285803694
9.878,1.510751506
9.88,1.390779339
9.882,1.645720193
9.884,2.230584504
9.886,2.5155184
9.888,2.620494045
9.89,2.170598421
9.892,1.930654088
9.894,1.510751506
9.896,1.390779339
9.898,1.315796735
9.9,1.60073063
9.902,1.840674963
9.904,2.125608859
9.906,2.470528837
9.908,2.500521879
9.91,2.170598421
9.912,1.915657567
9.914,1.750695839
9.916,1.40577586
9.918,1.180828048
9.92,1.525748026
9.922,2.1556019
9.924,2.33556015
9.926,2.425539275
9.928,2.260577546
9.93,2.320563629
9.932,1.78068888
9.934,1.645720193
9.936,1.450765422
9.938,1.240814131
9.94,1.450765422
9.942,2.245581025
9.944,2.230584504
9.946,2.5155184
9.948,2.290570588
9.95,1.930654088
9.952,1.675713235
9.954,1.735699318
9.956,1.420772381
9.958,1.450765422
9.96,1.645720193
9.962,2.035629734
9.964,2.320563629
9.966,2.33556015
9.968,2.5155184
9.97,1.975643651
9.972,1.975643651
9.974,1.885664526
9.976,1.465761943
9.978,1.300800214
9.98,1.525748026
9.982,1.96064713
9.984,2.395546233
9.986,2.440535796
9.988,2.320563629
9.99,2.110612338
9.992,1.840674963
9.994,1.96064713
9.996,1.525748026
9.998,1.240814131