Time (s),Signal (V)
0,2.635078416
0.002,2.704420107
0.004,2.583072147
0.006,2.375047073
0.008,2.132351154
0.01,1.958996926
0.012,1.872319812
0.014,1.976332349
0.016,2.167022
0.018,2.461724188
0.02,2.617742993
0.022,2.687084684
0.024,2.617742993
0.026,2.427053342
0.028,2.115015731
0.03,1.976332349
0.032,1.906990657
0.034,2.011003194
0.036,2.271034536
0.038,2.548401302
0.04,2.704420107
0.042,2.739090953
0.044,2.617742993
0.046,2.444388765
0.048,2.167022
0.05,1.976332349
0.052,1.976332349
0.054,2.04567404
0.056,2.253699114
0.058,2.565736724
0.06,2.72175553
0.062,2.773761798
0.064,2.669749261
0.066,2.461724188
0.068,2.167022
0.07,1.993667771
0.072,1.993667771
0.074,2.080344885
0.076,2.271034536
0.078,2.583072147
0.08,2.739090953
0.082,2.773761798
0.084,2.635078416
0.086,2.444388765
0.088,2.149686577
0.09,1.993667771
0.092,1.993667771
0.094,2.132351154
0.096,2.288369959
0.098,2.60040757
0.1,2.756426375
0.102,2.773761798
0.104,2.617742993
0.106,2.427053342
0.108,2.132351154
0.11,1.976332349
0.112,1.958996926
0.114,2.097680308
0.116,2.253699114
0.118,2.617742993
0.12,2.72175553
0.122,2.756426375
0.124,2.60040757
0.126,2.392382496
0.128,2.080344885
0.13,1.958996926
0.132,1.941661503
0.134,2.097680308
0.136,2.305705382
0.138,2.60040757
0.14,2.704420107
0.142,2.704420107
0.144,2.548401302
0.146,2.392382496
0.148,2.028338617
0.15,1.993667771
0.152,1.92432608
0.154,2.115015731
0.156,2.323040805
0.158,2.60040757
0.16,2.72175553
0.162,2.739090953
0.164,2.565736724
0.166,2.357711651
0.168,2.080344885
0.17,1.958996926
0.172,1.958996926
0.174,2.149686577
0.176,2.357711651
0.178,2.635078416
0.18,2.756426375
0.182,2.704420107
0.184,2.565736724
0.186,2.375047073
0.188,2.080344885
0.19,1.976332349
0.192,1.993667771
0.194,2.167022
0.196,2.375047073
0.198,2.652413839
0.2,2.72175553
0.202,2.704420107
0.204,2.531065879
0.206,2.305705382
0.208,2.028338617
0.21,1.941661503
0.212,1.958996926
0.214,2.149686577
0.216,2.392382496
0.218,2.617742993
0.22,2.739090953
0.222,2.687084684
0.224,2.496395033
0.226,2.271034536
0.228,2.011003194
0.23,1.906990657
0.232,1.941661503
0.234,2.167022
0.236,2.409717919
0.238,2.635078416
0.24,2.72175553
0.242,2.669749261
0.244,2.444388765
0.246,2.236363691
0.248,1.993667771
0.25,1.889655234
0.252,1.993667771
0.254,2.167022
0.256,2.444388765
0.258,2.652413839
0.26,2.72175553
0.262,2.669749261
0.264,2.47905961
0.266,2.236363691
0.268,2.011003194
0.27,1.906990657
0.272,1.976332349
0.274,2.184357422
0.276,2.461724188
0.278,2.652413839
0.28,2.687084684
0.282,2.669749261
0.284,2.461724188
0.286,2.201692845
0.288,1.993667771
0.29,1.906990657
0.292,2.011003194
0.294,2.184357422
0.296,2.461724188
0.298,2.652413839
0.3,2.704420107
0.302,2.635078416
0.304,2.409717919
0.306,2.149686577
0.308,1.976332349
0.31,1.889655234
0.312,2.011003194
0.314,2.219028268
0.316,2.496395033
0.318,2.652413839
0.32,2.72175553
0.322,2.635078416
0.324,2.444388765
0.326,2.149686577
0.328,1.958996926
0.33,1.941661503
0.332,2.028338617
0.334,2.236363691
0.336,2.531065879
0.338,2.669749261
0.34,2.72175553
0.342,2.635078416
0.344,2.427053342
0.346,2.149686577
0.348,1.958996926
0.35,1.92432608
0.352,2.04567404
0.354,2.219028268
0.356,2.531065879
0.358,2.652413839
0.36,2.704420107
0.362,2.635078416
0.364,2.375047073
0.366,2.097680308
0.368,1.941661503
0.37,1.906990657
0.372,2.063009463
0.374,2.219028268
0.376,2.565736724
0.378,2.704420107
0.38,2.739090953
0.382,2.60040757
0.384,2.427053342
0.386,2.132351154
0.388,1.976332349
0.39,1.976332349
0.392,2.097680308
0.394,2.253699114
0.396,2.60040757
0.398,2.739090953
0.4,2.791097221
0.402,2.635078416
0.404,2.444388765
0.406,2.097680308
0.408,1.976332349
0.41,1.993667771
0.412,2.132351154
0.414,2.323040805
0.416,2.652413839
0.418,2.791097221
0.42,2.791097221
0.422,2.687084684
0.424,2.531065879
0.426,2.201692845
0.428,2.080344885
0.43,2.063009463
0.432,2.271034536
0.434,2.427053342
0.436,2.739090953
0.438,2.860438912
0.44,2.877774335
0.442,2.72175553
0.444,2.531065879
0.446,2.201692845
0.448,2.097680308
0.45,2.080344885
0.452,2.288369959
0.454,2.461724188
0.456,2.739090953
0.458,2.808432644
0.46,2.84310349
0.462,2.635078416
0.464,2.427053342
0.466,2.115015731
0.468,1.993667771
0.47,1.993667771
0.472,2.149686577
0.474,2.357711651
0.476,2.617742993
0.478,2.704420107
0.48,2.72175553
0.482,2.496395033
0.484,2.305705382
0.486,2.04567404
0.488,1.976332349
0.49,1.976332349
0.492,2.149686577
0.494,2.340376228
0.496,2.617742993
0.498,2.72175553
0.5,2.687084684
0.502,2.444388765
0.504,2.236363691
0.506,1.976332349
0.508,1.889655234
0.51,1.906990657
0.512,2.132351154
0.514,2.375047073
0.516,2.617742993
0.518,2.704420107
0.52,2.687084684
0.522,2.47905961
0.524,2.236363691
0.526,1.958996926
0.528,1.820313543
0.53,1.854984389
0.532,2.028338617
0.534,2.271034536
0.536,2.496395033
0.538,2.531065879
0.54,2.565736724
0.542,2.548401302
0.544,2.461724188
0.546,2.444388765
0.548,2.687084684
0.55,3.033793141
0.552,3.553855825
0.554,4.07391851
0.556,4.50730408
0.558,4.697993732
0.56,4.593981195
0.562,4.160595624
0.564,3.501849557
0.566,3.033793141
0.568,2.895109758
0.57,2.704420107
0.572,2.548401302
0.574,2.531065879
0.576,2.236363691
0.578,2.132351154
0.58,2.063009463
0.582,1.906990657
0.584,1.698965583
0.586,1.525611355
0.588,1.490940509
0.59,1.629623892
0.592,1.906990657
0.594,2.201692845
0.596,2.461724188
0.598,2.583072147
0.6,2.548401302
0.602,2.427053342
0.604,2.149686577
0.606,1.976332349
0.608,1.958996926
0.61,2.080344885
0.612,2.253699114
0.614,2.60040757
0.616,2.791097221
0.618,2.825768067
0.62,2.72175553
0.622,2.565736724
0.624,2.236363691
0.626,2.063009463
0.628,2.028338617
0.63,2.115015731
0.632,2.340376228
0.634,2.635078416
0.636,2.773761798
0.638,2.825768067
0.64,2.704420107
0.642,2.531065879
0.644,2.253699114
0.646,2.097680308
0.648,2.04567404
0.65,2.167022
0.652,2.375047073
0.654,2.704420107
0.656,2.860438912
0.658,2.877774335
0.66,2.773761798
0.662,2.583072147
0.664,2.288369959
0.666,2.149686577
0.668,2.115015731
0.67,2.236363691
0.672,2.444388765
0.674,2.756426375
0.676,2.895109758
0.678,2.929780604
0.68,2.84310349
0.682,2.617742993
0.684,2.288369959
0.686,2.184357422
0.688,2.184357422
0.69,2.305705382
0.692,2.496395033
0.694,2.84310349
0.696,2.947116027
0.698,2.947116027
0.7,2.825768067
0.702,2.669749261
0.704,2.357711651
0.706,2.201692845
0.708,2.236363691
0.71,2.409717919
0.712,2.583072147
0.714,2.947116027
0.716,3.051128563
0.718,3.103134832
0.72,2.947116027
0.722,2.739090953
0.724,2.427053342
0.726,2.340376228
0.728,2.340376228
0.73,2.47905961
0.732,2.669749261
0.734,3.016457718
0.736,3.137805678
0.738,3.137805678
0.74,2.999122295
0.742,2.84310349
0.744,2.531065879
0.746,2.427053342
0.748,2.47905961
0.75,2.635078416
0.752,2.877774335
0.754,3.172476523
0.756,3.293824483
0.758,3.293824483
0.76,3.1551411
0.762,2.964451449
0.764,2.687084684
0.766,2.617742993
0.768,2.652413839
0.77,2.84310349
0.772,3.103134832
0.774,3.39783702
0.776,3.501849557
0.778,3.501849557
0.78,3.345830751
0.782,3.172476523
0.784,2.912445181
0.786,2.808432644
0.788,2.825768067
0.79,3.051128563
0.792,3.293824483
0.794,3.51918498
0.796,3.640532939
0.798,3.605862094
0.8,3.415172443
0.802,3.224482792
0.804,2.964451449
0.806,2.877774335
0.808,2.912445181
0.81,3.085799409
0.812,3.328495329
0.814,3.571191248
0.816,3.605862094
0.818,3.571191248
0.82,3.345830751
0.822,3.085799409
0.824,2.825768067
0.826,2.704420107
0.828,2.72175553
0.83,2.860438912
0.832,3.068463986
0.834,3.27648906
0.836,3.293824483
0.838,3.207147369
0.84,2.964451449
0.842,2.652413839
0.844,2.392382496
0.846,2.305705382
0.848,2.323040805
0.85,2.47905961
0.852,2.687084684
0.854,2.929780604
0.856,2.964451449
0.858,2.912445181
0.86,2.669749261
0.862,2.409717919
0.864,2.184357422
0.866,2.115015731
0.868,2.149686577
0.87,2.323040805
0.872,2.583072147
0.874,2.756426375
0.876,2.84310349
0.878,2.739090953
0.88,2.565736724
0.882,2.253699114
0.884,2.04567404
0.886,1.976332349
0.888,2.04567404
0.89,2.253699114
0.892,2.548401302
0.894,2.704420107
0.896,2.756426375
0.898,2.669749261
0.9,2.461724188
0.902,2.149686577
0.904,1.976332349
0.906,1.92432608
0.908,1.976332349
0.91,2.201692845
0.912,2.531065879
0.914,2.635078416
0.916,2.669749261
0.918,2.583072147
0.92,2.392382496
0.922,2.097680308
0.924,1.92432608
0.926,1.872319812
0.928,1.993667771
0.93,2.184357422
0.932,2.47905961
0.934,2.635078416
0.936,2.687084684
0.938,2.565736724
0.94,2.392382496
0.942,2.149686577
0.944,1.976332349
0.946,1.92432608
0.948,2.028338617
0.95,2.236363691
0.952,2.565736724
0.954,2.704420107
0.956,2.739090953
0.958,2.617742993
0.96,2.427053342
0.962,2.132351154
0.964,2.028338617
0.966,1.958996926
0.968,2.097680308
0.97,2.288369959
0.972,2.635078416
0.974,2.773761798
0.976,2.791097221
0.978,2.687084684
0.98,2.513730456
0.982,2.184357422
0.984,2.063009463
0.986,2.063009463
0.988,2.201692845
0.99,2.357711651
0.992,2.669749261
0.994,2.791097221
0.996,2.860438912
0.998,2.687084684
1,2.513730456
1.002,2.184357422
1.004,2.04567404
1.006,2.080344885
1.008,2.184357422
1.01,2.375047073
1.012,2.687084684
1.014,2.808432644
1.016,2.791097221
1.018,2.652413839
1.02,2.47905961
1.022,2.167022
1.024,2.028338617
1.026,2.011003194
1.028,2.167022
1.03,2.375047073
1.032,2.652413839
1.034,2.791097221
1.036,2.791097221
1.038,2.635078416
1.04,2.409717919
1.042,2.132351154
1.044,2.011003194
1.046,2.04567404
1.048,2.184357422
1.05,2.357711651
1.052,2.687084684
1.054,2.808432644
1.056,2.739090953
1.058,2.617742993
1.06,2.392382496
1.062,2.080344885
1.064,1.958996926
1.066,2.028338617
1.068,2.219028268
1.07,2.409717919
1.072,2.687084684
1.074,2.773761798
1.076,2.756426375
1.078,2.565736724
1.08,2.357711651
1.082,2.097680308
1.084,2.011003194
1.086,2.028338617
1.088,2.236363691
1.09,2.427053342
1.092,2.687084684
1.094,2.825768067
1.096,2.756426375
1.098,2.531065879
1.1,2.357711651
1.102,2.04567404
1.104,1.993667771
1.106,2.028338617
1.108,2.201692845
1.11,2.427053342
1.112,2.669749261
1.114,2.756426375
1.116,2.704420107
1.118,2.531065879
1.12,2.271034536
1.122,2.04567404
1.124,1.993667771
1.126,2.04567404
1.128,2.219028268
1.13,2.461724188
1.132,2.669749261
1.134,2.773761798
1.136,2.72175553
1.138,2.496395033
1.14,2.236363691
1.142,2.04567404
1.144,1.958996926
1.146,2.011003194
1.148,2.184357422
1.15,2.496395033
1.152,2.669749261
1.154,2.756426375
1.156,2.687084684
1.158,2.496395033
1.16,2.201692845
1.162,2.04567404
1.164,1.976332349
1.166,2.04567404
1.168,2.253699114
1.17,2.513730456
1.172,2.704420107
1.174,2.773761798
1.176,2.687084684
1.178,2.47905961
1.18,2.184357422
1.182,1.993667771
1.184,1.941661503
1.186,2.04567404
1.188,2.236363691
1.19,2.496395033
1.192,2.704420107
1.194,2.791097221
1.196,2.635078416
1.198,2.496395033
1.2,2.184357422
1.202,2.028338617
1.204,1.976332349
1.206,2.063009463
1.208,2.253699114
1.21,2.583072147
1.212,2.72175553
1.214,2.756426375
1.216,2.669749261
1.218,2.496395033
1.22,2.201692845
1.222,2.04567404
1.224,1.993667771
1.226,2.080344885
1.228,2.271034536
1.23,2.583072147
1.232,2.72175553
1.234,2.773761798
1.236,2.652413839
1.238,2.461724188
1.24,2.184357422
1.242,2.04567404
1.244,1.993667771
1.246,2.097680308
1.248,2.288369959
1.25,2.565736724
1.252,2.72175553
1.254,2.756426375
1.256,2.652413839
1.258,2.461724188
1.26,2.184357422
1.262,2.028338617
1.264,1.958996926
1.266,2.132351154
1.268,2.288369959
1.27,2.583072147
1.272,2.72175553
1.274,2.773761798
1.276,2.617742993
1.278,2.427053342
1.28,2.167022
1.282,2.011003194
1.284,1.993667771
1.286,2.132351154
1.288,2.323040805
1.29,2.635078416
1.292,2.773761798
1.294,2.739090953
1.296,2.635078416
1.298,2.444388765
1.3,2.115015731
1.302,1.993667771
1.304,1.976332349
1.306,2.097680308
1.308,2.323040805
1.31,2.652413839
1.312,2.773761798
1.314,2.791097221
1.316,2.60040757
1.318,2.392382496
1.32,2.115015731
1.322,1.993667771
1.324,1.993667771
1.326,2.184357422
1.328,2.375047073
1.33,2.652413839
1.332,2.773761798
1.334,2.773761798
1.336,2.617742993
1.338,2.409717919
1.34,2.149686577
1.342,2.028338617
1.344,2.028338617
1.346,2.184357422
1.348,2.427053342
1.35,2.739090953
1.352,2.808432644
1.354,2.808432644
1.356,2.635078416
1.358,2.427053342
1.36,2.184357422
1.362,2.115015731
1.364,2.097680308
1.366,2.305705382
1.368,2.496395033
1.37,2.791097221
1.372,2.860438912
1.374,2.877774335
1.376,2.669749261
1.378,2.461724188
1.38,2.201692845
1.382,2.115015731
1.384,2.149686577
1.386,2.357711651
1.388,2.531065879
1.39,2.808432644
1.392,2.877774335
1.394,2.895109758
1.396,2.652413839
1.398,2.444388765
1.4,2.201692845
1.402,2.063009463
1.404,2.080344885
1.406,2.271034536
1.408,2.47905961
1.41,2.72175553
1.412,2.791097221
1.414,2.739090953
1.416,2.548401302
1.418,2.288369959
1.42,2.04567404
1.422,1.941661503
1.424,1.993667771
1.426,2.167022
1.428,2.47905961
1.43,2.687084684
1.432,2.704420107
1.434,2.687084684
1.436,2.496395033
1.438,2.219028268
1.44,1.976332349
1.442,1.92432608
1.444,1.993667771
1.446,2.219028268
1.448,2.513730456
1.45,2.669749261
1.452,2.72175553
1.454,2.669749261
1.456,2.496395033
1.458,2.184357422
1.46,2.011003194
1.462,1.958996926
1.464,1.993667771
1.466,2.184357422
1.468,2.47905961
1.47,2.669749261
1.472,2.739090953
1.474,2.669749261
1.476,2.409717919
1.478,2.080344885
1.48,1.889655234
1.482,1.750971852
1.484,1.854984389
1.486,2.080344885
1.488,2.340376228
1.49,2.513730456
1.492,2.565736724
1.494,2.687084684
1.496,2.669749261
1.498,2.635078416
1.5,2.72175553
1.502,3.033793141
1.504,3.415172443
1.506,3.969905973
1.508,4.541974926
1.51,4.75
1.512,4.732664577
1.514,4.403291544
1.516,3.779216322
1.518,3.293824483
1.52,3.085799409
1.522,2.756426375
1.524,2.496395033
1.526,2.288369959
1.528,2.115015731
1.53,2.097680308
1.532,2.132351154
1.534,2.04567404
1.536,1.854984389
1.538,1.542946778
1.54,1.421598818
1.542,1.473605087
1.544,1.664294738
1.546,1.92432608
1.548,2.323040805
1.55,2.513730456
1.552,2.583072147
1.554,2.513730456
1.556,2.392382496
1.558,2.097680308
1.56,1.92432608
1.562,1.941661503
1.564,2.080344885
1.566,2.236363691
1.568,2.565736724
1.57,2.687084684
1.572,2.739090953
1.574,2.565736724
1.576,2.444388765
1.578,2.132351154
1.58,2.04567404
1.582,1.976332349
1.584,2.253699114
1.586,2.427053342
1.588,2.756426375
1.59,2.84310349
1.592,2.84310349
1.594,2.687084684
1.596,2.496395033
1.598,2.184357422
1.6,2.04567404
1.602,2.028338617
1.604,2.201692845
1.606,2.409717919
1.608,2.704420107
1.61,2.808432644
1.612,2.895109758
1.614,2.704420107
1.616,2.531065879
1.618,2.236363691
1.62,2.167022
1.622,2.167022
1.624,2.323040805
1.626,2.531065879
1.628,2.860438912
1.63,2.947116027
1.632,2.947116027
1.634,2.739090953
1.636,2.565736724
1.638,2.323040805
1.64,2.184357422
1.642,2.219028268
1.644,2.392382496
1.646,2.583072147
1.648,2.860438912
1.65,2.981786872
1.652,2.999122295
1.654,2.791097221
1.656,2.565736724
1.658,2.271034536
1.66,2.288369959
1.662,2.288369959
1.664,2.461724188
1.666,2.652413839
1.668,2.929780604
1.67,3.016457718
1.672,2.981786872
1.674,2.808432644
1.676,2.617742993
1.678,2.392382496
1.68,2.288369959
1.682,2.357711651
1.684,2.565736724
1.686,2.84310349
1.688,3.068463986
1.69,3.1551411
1.692,3.137805678
1.694,2.964451449
1.696,2.739090953
1.698,2.47905961
1.7,2.409717919
1.702,2.496395033
1.704,2.704420107
1.706,2.964451449
1.708,3.172476523
1.71,3.259153637
1.712,3.241818214
1.714,3.068463986
1.716,2.860438912
1.718,2.652413839
1.72,2.635078416
1.722,2.808432644
1.724,3.016457718
1.726,3.328495329
1.728,3.588526671
1.73,3.675203785
1.732,3.623197517
1.734,3.415172443
1.736,3.189811946
1.738,2.964451449
1.74,2.895109758
1.742,2.947116027
1.744,3.1551411
1.746,3.432507866
1.748,3.605862094
1.75,3.709874631
1.752,3.640532939
1.754,3.449843288
1.756,3.224482792
1.758,3.051128563
1.76,2.947116027
1.762,3.016457718
1.764,3.224482792
1.766,3.467178711
1.768,3.623197517
1.77,3.657868362
1.772,3.588526671
1.774,3.293824483
1.776,2.981786872
1.778,2.773761798
1.78,2.669749261
1.782,2.72175553
1.784,2.895109758
1.786,3.1551411
1.788,3.27648906
1.79,3.345830751
1.792,3.189811946
1.794,2.964451449
1.796,2.635078416
1.798,2.409717919
1.8,2.271034536
1.802,2.340376228
1.804,2.548401302
1.806,2.860438912
1.808,2.912445181
1.81,2.964451449
1.812,2.825768067
1.814,2.635078416
1.816,2.323040805
1.818,2.149686577
1.82,2.04567404
1.822,2.149686577
1.824,2.340376228
1.826,2.60040757
1.828,2.72175553
1.83,2.756426375
1.832,2.704420107
1.834,2.461724188
1.836,2.149686577
1.838,1.976332349
1.84,1.941661503
1.842,2.028338617
1.844,2.184357422
1.846,2.548401302
1.848,2.687084684
1.85,2.687084684
1.852,2.548401302
1.854,2.444388765
1.856,2.115015731
1.858,1.958996926
1.86,1.92432608
1.862,2.04567404
1.864,2.236363691
1.866,2.617742993
1.868,2.704420107
1.87,2.72175553
1.872,2.60040757
1.874,2.409717919
1.876,2.115015731
1.878,1.976332349
1.88,1.958996926
1.882,2.097680308
1.884,2.271034536
1.886,2.60040757
1.888,2.72175553
1.89,2.704420107
1.892,2.583072147
1.894,2.357711651
1.896,2.063009463
1.898,1.906990657
1.9,1.889655234
1.902,2.063009463
1.904,2.271034536
1.906,2.635078416
1.908,2.773761798
1.91,2.791097221
1.912,2.652413839
1.914,2.375047073
1.916,2.097680308
1.918,1.941661503
1.92,1.92432608
1.922,2.132351154
1.924,2.340376228
1.926,2.669749261
1.928,2.739090953
1.93,2.739090953
1.932,2.617742993
1.934,2.392382496
1.936,2.097680308
1.938,1.958996926
1.94,1.993667771
1.942,2.219028268
1.944,2.444388765
1.946,2.704420107
1.948,2.84310349
1.95,2.791097221
1.952,2.617742993
1.954,2.375047073
1.956,2.097680308
1.958,2.011003194
1.96,2.028338617
1.962,2.253699114
1.964,2.444388765
1.966,2.773761798
1.968,2.825768067
1.97,2.739090953
1.972,2.565736724
1.974,2.305705382
1.976,2.011003194
1.978,1.92432608
1.98,1.993667771
1.982,2.219028268
1.984,2.47905961
1.986,2.704420107
1.988,2.791097221
1.99,2.72175553
1.992,2.531065879
1.994,2.340376228
1.996,2.132351154
1.998,1.993667771
2,2.04567404
2.002,2.236363691
2.004,2.496395033
2.006,2.704420107
2.008,2.791097221
2.01,2.704420107
2.012,2.513730456
2.014,2.219028268
2.016,2.011003194
2.018,1.958996926
2.02,2.028338617
2.022,2.236363691
2.024,2.513730456
2.026,2.739090953
2.028,2.808432644
2.03,2.773761798
2.032,2.513730456
2.034,2.253699114
2.036,2.080344885
2.038,1.976332349
2.04,2.028338617
2.042,2.219028268
2.044,2.531065879
2.046,2.72175553
2.048,2.773761798
2.05,2.704420107
2.052,2.548401302
2.054,2.288369959
2.056,2.080344885
2.058,1.976332349
2.06,2.063009463
2.062,2.236363691
2.064,2.531065879
2.066,2.704420107
2.068,2.791097221
2.07,2.72175553
2.072,2.496395033
2.074,2.236363691
2.076,1.993667771
2.078,1.92432608
2.08,2.115015731
2.082,2.305705382
2.084,2.531065879
2.086,2.756426375
2.088,2.773761798
2.09,2.635078416
2.092,2.461724188
2.094,2.219028268
2.096,2.028338617
2.098,1.976332349
2.1,2.115015731
2.102,2.305705382
2.104,2.565736724
2.106,2.704420107
2.108,2.739090953
2.11,2.652413839
2.112,2.461724188
2.114,2.149686577
2.116,1.993667771
2.118,1.958996926
2.12,2.080344885
2.122,2.271034536
2.124,2.565736724
2.126,2.72175553
2.128,2.756426375
2.13,2.60040757
2.132,2.409717919
2.134,2.149686577
2.136,1.958996926
2.138,1.906990657
2.14,2.04567404
2.142,2.219028268
2.144,2.548401302
2.146,2.739090953
2.148,2.756426375
2.15,2.60040757
2.152,2.409717919
2.154,2.080344885
2.156,1.958996926
2.158,1.941661503
2.16,2.097680308
2.162,2.253699114
2.164,2.565736724
2.166,2.704420107
2.168,2.704420107
2.17,2.565736724
2.172,2.392382496
2.174,2.04567404
2.176,1.906990657
2.178,1.872319812
2.18,2.028338617
2.182,2.184357422
2.184,2.531065879
2.186,2.652413839
2.188,2.669749261
2.19,2.548401302
2.192,2.357711651
2.194,2.097680308
2.196,1.958996926
2.198,1.958996926
2.2,2.080344885
2.202,2.288369959
2.204,2.617742993
2.206,2.72175553
2.208,2.72175553
2.21,2.548401302
2.212,2.392382496
2.214,2.063009463
2.216,1.906990657
2.218,1.941661503
2.22,2.097680308
2.222,2.305705382
2.224,2.617742993
2.226,2.72175553
2.228,2.669749261
2.23,2.513730456
2.232,2.305705382
2.234,2.04567404
2.236,1.906990657
2.238,1.906990657
2.24,2.115015731
2.242,2.340376228
2.244,2.635078416
2.246,2.756426375
2.248,2.739090953
2.25,2.531065879
2.252,2.340376228
2.254,2.080344885
2.256,1.958996926
2.258,1.958996926
2.26,2.167022
2.262,2.392382496
2.264,2.635078416
2.266,2.756426375
2.268,2.704420107
2.27,2.496395033
2.272,2.288369959
2.274,2.04567404
2.276,1.976332349
2.278,2.028338617
2.28,2.236363691
2.282,2.496395033
2.284,2.687084684
2.286,2.791097221
2.288,2.808432644
2.29,2.617742993
2.292,2.444388765
2.294,2.201692845
2.296,2.115015731
2.298,2.149686577
2.3,2.392382496
2.302,2.583072147
2.304,2.825768067
2.306,2.877774335
2.308,2.860438912
2.31,2.652413839
2.312,2.409717919
2.314,2.184357422
2.316,2.080344885
2.318,2.167022
2.32,2.375047073
2.322,2.635078416
2.324,2.84310349
2.326,2.895109758
2.328,2.825768067
2.33,2.617742993
2.332,2.340376228
2.334,2.097680308
2.336,1.993667771
2.338,2.115015731
2.34,2.271034536
2.342,2.531065879
2.344,2.72175553
2.346,2.808432644
2.348,2.669749261
2.35,2.461724188
2.352,2.201692845
2.354,2.011003194
2.356,1.941661503
2.358,1.993667771
2.36,2.219028268
2.362,2.47905961
2.364,2.669749261
2.366,2.72175553
2.368,2.652413839
2.37,2.444388765
2.372,2.149686577
2.374,1.941661503
2.376,1.92432608
2.378,1.993667771
2.38,2.184357422
2.382,2.47905961
2.384,2.669749261
2.386,2.704420107
2.388,2.635078416
2.39,2.461724188
2.392,2.149686577
2.394,1.958996926
2.396,1.889655234
2.398,2.028338617
2.4,2.184357422
2.402,2.496395033
2.404,2.617742993
2.406,2.652413839
2.408,2.513730456
2.41,2.288369959
2.412,1.941661503
2.414,1.750971852
2.416,1.750971852
2.418,1.820313543
2.42,2.04567404
2.422,2.496395033
2.424,2.84310349
2.426,3.172476523
2.428,3.328495329
2.43,3.432507866
2.432,3.467178711
2.434,3.640532939
2.436,3.987241396
2.438,4.247272738
2.44,4.420626966
2.442,4.576645772
2.444,4.281943584
2.446,4.021912241
2.448,3.813887168
2.45,3.39783702
2.452,2.617742993
2.454,2.028338617
2.456,1.525611355
2.458,1.386927973
2.46,1.594953046
2.462,1.941661503
2.464,2.115015731
2.466,2.167022
2.468,2.011003194
2.47,1.872319812
2.472,1.594953046
2.474,1.542946778
2.476,1.612288469
2.478,1.872319812
2.48,2.097680308
2.482,2.513730456
2.484,2.652413839
2.486,2.72175553
2.488,2.565736724
2.49,2.375047073
2.492,2.063009463
2.494,1.976332349
2.496,1.958996926
2.498,2.115015731
2.5,2.357711651
2.502,2.635078416
2.504,2.739090953
2.506,2.825768067
2.508,2.635078416
2.51,2.427053342
2.512,2.149686577
2.514,2.063009463
2.516,2.04567404
2.518,2.219028268
2.52,2.444388765
2.522,2.756426375
2.524,2.84310349
2.526,2.825768067
2.528,2.704420107
2.53,2.47905961
2.532,2.201692845
2.534,2.097680308
2.536,2.115015731
2.538,2.288369959
2.54,2.47905961
2.542,2.791097221
2.544,2.895109758
2.546,2.895109758
2.548,2.704420107
2.55,2.496395033
2.552,2.219028268
2.554,2.149686577
2.556,2.167022
2.558,2.340376228
2.56,2.583072147
2.562,2.84310349
2.564,2.999122295
2.566,2.929780604
2.568,2.739090953
2.57,2.513730456
2.572,2.253699114
2.574,2.167022
2.576,2.219028268
2.578,2.444388765
2.58,2.669749261
2.582,2.895109758
2.584,2.981786872
2.586,2.964451449
2.588,2.773761798
2.59,2.531065879
2.592,2.305705382
2.594,2.201692845
2.596,2.271034536
2.598,2.496395033
2.6,2.756426375
2.602,2.981786872
2.604,3.085799409
2.606,2.999122295
2.608,2.808432644
2.61,2.565736724
2.612,2.357711651
2.614,2.323040805
2.616,2.375047073
2.618,2.583072147
2.62,2.877774335
2.622,3.068463986
2.624,3.137805678
2.626,3.137805678
2.628,2.912445181
2.63,2.704420107
2.632,2.531065879
2.634,2.47905961
2.636,2.548401302
2.638,2.756426375
2.64,3.120470255
2.642,3.293824483
2.644,3.39783702
2.646,3.328495329
2.648,3.137805678
2.65,2.877774335
2.652,2.72175553
2.654,2.704420107
2.656,2.825768067
2.658,3.033793141
2.66,3.311159906
2.662,3.51918498
2.664,3.588526671
2.666,3.501849557
2.668,3.311159906
2.67,3.068463986
2.672,2.912445181
2.674,2.84310349
2.676,2.981786872
2.678,3.207147369
2.68,3.501849557
2.682,3.657868362
2.684,3.640532939
2.686,3.571191248
2.688,3.380501597
2.69,3.085799409
2.692,2.895109758
2.694,2.877774335
2.696,2.964451449
2.698,3.137805678
2.7,3.415172443
2.702,3.536520402
2.704,3.51918498
2.706,3.380501597
2.708,3.172476523
2.71,2.84310349
2.712,2.617742993
2.714,2.565736724
2.716,2.617742993
2.718,2.739090953
2.72,3.016457718
2.722,3.120470255
2.724,3.103134832
2.726,2.947116027
2.728,2.72175553
2.73,2.392382496
2.732,2.219028268
2.734,2.115015731
2.736,2.271034536
2.738,2.427053342
2.74,2.72175553
2.742,2.84310349
2.744,2.825768067
2.746,2.687084684
2.748,2.496395033
2.75,2.132351154
2.752,1.993667771
2.754,1.958996926
2.756,2.080344885
2.758,2.288369959
2.76,2.565736724
2.762,2.704420107
2.764,2.687084684
2.766,2.548401302
2.768,2.375047073
2.77,2.028338617
2.772,1.889655234
2.774,1.872319812
2.776,1.993667771
2.778,2.219028268
2.78,2.513730456
2.782,2.617742993
2.784,2.617742993
2.786,2.461724188
2.788,2.288369959
2.79,1.958996926
2.792,1.854984389
2.794,1.837648966
2.796,1.993667771
2.798,2.219028268
2.8,2.531065879
2.802,2.60040757
2.804,2.617742993
2.806,2.409717919
2.808,2.253699114
2.81,1.958996926
2.812,1.854984389
2.814,1.854984389
2.816,2.011003194
2.818,2.236363691
2.82,2.513730456
2.822,2.60040757
2.824,2.617742993
2.826,2.444388765
2.828,2.271034536
2.83,1.976332349
2.832,1.889655234
2.834,1.872319812
2.836,2.097680308
2.838,2.323040805
2.84,2.583072147
2.842,2.669749261
2.844,2.652413839
2.846,2.444388765
2.848,2.271034536
2.85,1.993667771
2.852,1.889655234
2.854,1.941661503
2.856,2.132351154
2.858,2.375047073
2.86,2.635078416
2.862,2.739090953
2.864,2.635078416
2.866,2.47905961
2.868,2.305705382
2.87,2.028338617
2.872,1.941661503
2.874,1.993667771
2.876,2.184357422
2.878,2.427053342
2.88,2.687084684
2.882,2.791097221
2.884,2.72175553
2.886,2.513730456
2.888,2.271034536
2.89,2.028338617
2.892,1.976332349
2.894,2.011003194
2.896,2.219028268
2.898,2.461724188
2.9,2.669749261
2.902,2.773761798
2.904,2.704420107
2.906,2.496395033
2.908,2.253699114
2.91,2.028338617
2.912,1.958996926
2.914,2.028338617
2.916,2.201692845
2.918,2.461724188
2.92,2.652413839
2.922,2.756426375
2.924,2.687084684
2.926,2.461724188
2.928,2.219028268
2.93,2.011003194
2.932,1.92432608
2.934,2.04567404
2.936,2.201692845
2.938,2.513730456
2.94,2.687084684
2.942,2.773761798
2.944,2.704420107
2.946,2.47905961
2.948,2.236363691
2.95,2.04567404
2.952,1.993667771
2.954,2.080344885
2.956,2.271034536
2.958,2.548401302
2.96,2.739090953
2.962,2.791097221
2.964,2.687084684
2.966,2.47905961
2.968,2.184357422
2.97,2.028338617
2.972,1.958996926
2.974,2.063009463
2.976,2.236363691
2.978,2.548401302
2.98,2.72175553
2.982,2.791097221
2.984,2.669749261
2.986,2.47905961
2.988,2.167022
2.99,1.993667771
2.992,1.941661503
2.994,2.063009463
2.996,2.271034536
2.998,2.583072147
3,2.704420107
3.002,2.756426375
3.004,2.635078416
3.006,2.444388765
3.008,2.167022
3.01,1.993667771
3.012,1.92432608
3.014,2.080344885
3.016,2.271034536
3.018,2.583072147
3.02,2.704420107
3.022,2.791097221
3.024,2.635078416
3.026,2.444388765
3.028,2.132351154
3.03,1.958996926
3.032,1.941661503
3.034,2.063009463
3.036,2.288369959
3.038,2.548401302
3.04,2.704420107
3.042,2.739090953
3.044,2.60040757
3.046,2.427053342
3.048,2.097680308
3.05,2.011003194
3.052,1.976332349
3.054,2.080344885
3.056,2.271034536
3.058,2.583072147
3.06,2.669749261
3.062,2.72175553
3.064,2.531065879
3.066,2.375047073
3.068,2.080344885
3.07,1.941661503
3.072,1.941661503
3.074,2.080344885
3.076,2.288369959
3.078,2.583072147
3.08,2.669749261
3.082,2.704420107
3.084,2.531065879
3.086,2.340376228
3.088,2.028338617
3.09,1.941661503
3.092,1.906990657
3.094,2.080344885
3.096,2.253699114
3.098,2.583072147
3.1,2.704420107
3.102,2.704420107
3.104,2.513730456
3.106,2.305705382
3.108,2.011003194
3.11,1.941661503
3.112,1.92432608
3.114,2.097680308
3.116,2.305705382
3.118,2.60040757
3.12,2.704420107
3.122,2.652413839
3.124,2.496395033
3.126,2.305705382
3.128,1.993667771
3.13,1.872319812
3.132,1.906990657
3.134,2.097680308
3.136,2.340376228
3.138,2.565736724
3.14,2.687084684
3.142,2.652413839
3.144,2.47905961
3.146,2.219028268
3.148,1.993667771
3.15,1.889655234
3.152,1.92432608
3.154,2.115015731
3.156,2.392382496
3.158,2.635078416
3.16,2.72175553
3.162,2.669749261
3.164,2.47905961
3.166,2.236363691
3.168,2.011003194
3.17,1.941661503
3.172,1.941661503
3.174,2.167022
3.176,2.392382496
3.178,2.652413839
3.18,2.739090953
3.182,2.652413839
3.184,2.461724188
3.186,2.236363691
3.188,2.011003194
3.19,1.92432608
3.192,1.958996926
3.194,2.184357422
3.196,2.427053342
3.198,2.635078416
3.2,2.704420107
3.202,2.652413839
3.204,2.461724188
3.206,2.219028268
3.208,1.993667771
3.21,1.941661503
3.212,2.028338617
3.214,2.219028268
3.216,2.47905961
3.218,2.669749261
3.22,2.756426375
3.222,2.652413839
3.224,2.496395033
3.226,2.219028268
3.228,2.063009463
3.23,2.011003194
3.232,2.097680308
3.234,2.288369959
3.236,2.60040757
3.238,2.773761798
3.24,2.860438912
3.242,2.756426375
3.244,2.548401302
3.246,2.271034536
3.248,2.063009463
3.25,2.063009463
3.252,2.167022
3.254,2.357711651
3.256,2.635078416
3.258,2.808432644
3.26,2.84310349
3.262,2.773761798
3.264,2.60040757
3.266,2.305705382
3.268,2.097680308
3.27,2.028338617
3.272,2.132351154
3.274,2.305705382
3.276,2.583072147
3.278,2.739090953
3.28,2.773761798
3.282,2.652413839
3.284,2.461724188
3.286,2.167022
3.288,1.976332349
3.29,1.92432608
3.292,2.028338617
3.294,2.219028268
3.296,2.531065879
3.298,2.652413839
3.3,2.669749261
3.302,2.548401302
3.304,2.375047073
3.306,2.063009463
3.308,1.958996926
3.31,1.889655234
3.312,1.993667771
3.314,2.219028268
3.316,2.548401302
3.318,2.669749261
3.32,2.669749261
3.322,2.531065879
3.324,2.340376228
3.326,2.063009463
3.328,1.872319812
3.33,1.872319812
3.332,2.011003194
3.334,2.184357422
3.336,2.531065879
3.338,2.669749261
3.34,2.652413839
3.342,2.513730456
3.344,2.288369959
3.346,1.941661503
3.348,1.80297812
3.35,1.750971852
3.352,1.872319812
3.354,2.063009463
3.356,2.392382496
3.358,2.444388765
3.36,2.531065879
3.362,2.531065879
3.364,2.548401302
3.366,2.531065879
3.368,2.669749261
3.37,2.912445181
3.372,3.415172443
3.374,3.969905973
3.376,4.489968658
3.378,4.75
3.38,4.663322886
3.382,4.247272738
3.384,3.657868362
3.386,3.120470255
3.388,2.964451449
3.39,2.704420107
3.392,2.513730456
3.394,2.357711651
3.396,2.132351154
3.398,1.993667771
3.4,2.063009463
3.402,1.906990657
3.404,1.716301006
3.406,1.508275932
3.408,1.36959255
3.41,1.386927973
3.412,1.612288469
3.414,1.872319812
3.416,2.271034536
3.418,2.47905961
3.42,2.513730456
3.422,2.409717919
3.424,2.219028268
3.426,1.958996926
3.428,1.92432608
3.43,1.976332349
3.432,2.149686577
3.434,2.427053342
3.436,2.687084684
3.438,2.773761798
3.44,2.756426375
3.442,2.531065879
3.444,2.340376228
3.446,2.080344885
3.448,1.976332349
3.45,2.04567404
3.452,2.253699114
3.454,2.496395033
3.456,2.72175553
3.458,2.791097221
3.46,2.773761798
3.462,2.565736724
3.464,2.375047073
3.466,2.115015731
3.468,2.04567404
3.47,2.080344885
3.472,2.305705382
3.474,2.583072147
3.476,2.773761798
3.478,2.877774335
3.48,2.825768067
3.482,2.60040757
3.484,2.392382496
3.486,2.132351154
3.488,2.063009463
3.49,2.149686577
3.492,2.340376228
3.494,2.60040757
3.496,2.84310349
3.498,2.895109758
3.5,2.825768067
3.502,2.635078416
3.504,2.375047073
3.506,2.201692845
3.508,2.132351154
3.51,2.167022
3.512,2.357711651
3.514,2.687084684
3.516,2.860438912
3.518,2.895109758
3.52,2.860438912
3.522,2.652413839
3.524,2.375047073
3.526,2.201692845
3.528,2.167022
3.53,2.253699114
3.532,2.513730456
3.534,2.756426375
3.536,2.947116027
3.538,2.999122295
3.54,2.912445181
3.542,2.72175553
3.544,2.461724188
3.546,2.253699114
3.548,2.253699114
3.55,2.357711651
3.552,2.548401302
3.554,2.84310349
3.556,3.051128563
3.558,3.103134832
3.56,3.016457718
3.562,2.825768067
3.564,2.60040757
3.566,2.392382496
3.568,2.392382496
3.57,2.531065879
3.572,2.756426375
3.574,3.051128563
3.576,3.224482792
3.578,3.27648906
3.58,3.1551411
3.582,3.033793141
3.584,2.739090953
3.586,2.60040757
3.588,2.60040757
3.59,2.756426375
3.592,2.964451449
3.594,3.241818214
3.596,3.467178711
3.598,3.51918498
3.6,3.432507866
3.602,3.27648906
3.604,2.912445181
3.606,2.808432644
3.608,2.808432644
3.61,2.964451449
3.612,3.1551411
3.614,3.51918498
3.616,3.675203785
3.618,3.657868362
3.62,3.536520402
3.622,3.345830751
3.624,3.068463986
3.626,2.929780604
3.628,2.860438912
3.63,3.016457718
3.632,3.189811946
3.634,3.553855825
3.636,3.588526671
3.638,3.623197517
3.64,3.484514134
3.642,3.27648906
3.644,2.895109758
3.646,2.791097221
3.648,2.739090953
3.65,2.84310349
3.652,3.016457718
3.654,3.259153637
3.656,3.328495329
3.658,3.345830751
3.66,3.103134832
3.662,2.877774335
3.664,2.565736724
3.666,2.375047073
3.668,2.340376228
3.67,2.461724188
3.672,2.617742993
3.674,2.912445181
3.676,2.964451449
3.678,2.947116027
3.68,2.756426375
3.682,2.548401302
3.684,2.201692845
3.686,2.097680308
3.688,2.080344885
3.69,2.271034536
3.692,2.427053342
3.694,2.739090953
3.696,2.791097221
3.698,2.756426375
3.7,2.60040757
3.702,2.375047073
3.704,2.132351154
3.706,2.011003194
3.708,1.993667771
3.71,2.149686577
3.712,2.392382496
3.714,2.669749261
3.716,2.739090953
3.718,2.704420107
3.72,2.513730456
3.722,2.305705382
3.724,2.028338617
3.726,1.906990657
3.728,1.941661503
3.73,2.132351154
3.732,2.357711651
3.734,2.60040757
3.736,2.687084684
3.738,2.687084684
3.74,2.461724188
3.742,2.271034536
3.744,2.011003194
3.746,1.906990657
3.748,1.958996926
3.75,2.115015731
3.752,2.357711651
3.754,2.617742993
3.756,2.704420107
3.758,2.635078416
3.76,2.47905961
3.762,2.219028268
3.764,2.011003194
3.766,1.92432608
3.768,1.993667771
3.77,2.184357422
3.772,2.444388765
3.774,2.669749261
3.776,2.704420107
3.778,2.669749261
3.78,2.496395033
3.782,2.236363691
3.784,1.993667771
3.786,1.941661503
3.788,1.993667771
3.79,2.184357422
3.792,2.461724188
3.794,2.669749261
3.796,2.773761798
3.798,2.669749261
3.8,2.513730456
3.802,2.219028268
3.804,1.993667771
3.806,1.958996926
3.808,2.04567404
3.81,2.219028268
3.812,2.496395033
3.814,2.687084684
3.816,2.739090953
3.818,2.652413839
3.82,2.513730456
3.822,2.236363691
3.824,2.011003194
3.826,1.976332349
3.828,2.080344885
3.83,2.271034536
3.832,2.548401302
3.834,2.72175553
3.836,2.791097221
3.838,2.687084684
3.84,2.513730456
3.842,2.201692845
3.844,2.028338617
3.846,1.976332349
3.848,2.097680308
3.85,2.271034536
3.852,2.565736724
3.854,2.72175553
3.856,2.791097221
3.858,2.687084684
3.86,2.513730456
3.862,2.167022
3.864,2.011003194
3.866,1.976332349
3.868,2.063009463
3.87,2.271034536
3.872,2.60040757
3.874,2.756426375
3.876,2.773761798
3.878,2.635078416
3.88,2.461724188
3.882,2.115015731
3.884,1.993667771
3.886,1.958996926
3.888,2.080344885
3.89,2.253699114
3.892,2.583072147
3.894,2.72175553
3.896,2.739090953
3.898,2.60040757
3.9,2.409717919
3.902,2.080344885
3.904,1.958996926
3.906,1.906990657
3.908,2.063009463
3.91,2.271034536
3.912,2.548401302
3.914,2.687084684
3.916,2.704420107
3.918,2.60040757
3.92,2.392382496
3.922,2.080344885
3.924,1.92432608
3.926,1.889655234
3.928,2.080344885
3.93,2.253699114
3.932,2.583072147
3.934,2.669749261
3.936,2.72175553
3.938,2.583072147
3.94,2.323040805
3.942,2.063009463
3.944,1.941661503
3.946,1.906990657
3.948,2.063009463
3.95,2.271034536
3.952,2.531065879
3.954,2.704420107
3.956,2.704420107
3.958,2.548401302
3.96,2.357711651
3.962,2.080344885
3.964,1.958996926
3.966,1.92432608
3.968,2.115015731
3.97,2.305705382
3.972,2.583072147
3.974,2.687084684
3.976,2.704420107
3.978,2.531065879
3.98,2.357711651
3.982,2.063009463
3.984,1.941661503
3.986,1.958996926
3.988,2.097680308
3.99,2.323040805
3.992,2.617742993
3.994,2.72175553
3.996,2.704420107
3.998,2.531065879
4,2.305705382
4.002,2.028338617
4.004,1.958996926
4.006,1.941661503
4.008,2.132351154
4.01,2.375047073
4.012,2.617742993
4.014,2.669749261
4.016,2.687084684
4.018,2.531065879
4.02,2.288369959
4.022,2.04567404
4.024,1.941661503
4.026,1.958996926
4.028,2.115015731
4.03,2.375047073
4.032,2.617742993
4.034,2.72175553
4.036,2.652413839
4.038,2.47905961
4.04,2.271034536
4.042,2.028338617
4.044,1.941661503
4.046,1.993667771
4.048,2.167022
4.05,2.409717919
4.052,2.669749261
4.054,2.739090953
4.056,2.687084684
4.058,2.513730456
4.06,2.271034536
4.062,2.011003194
4.064,1.941661503
4.066,2.011003194
4.068,2.201692845
4.07,2.461724188
4.072,2.669749261
4.074,2.756426375
4.076,2.704420107
4.078,2.513730456
4.08,2.288369959
4.082,2.097680308
4.084,2.028338617
4.086,2.097680308
4.088,2.305705382
4.09,2.583072147
4.092,2.791097221
4.094,2.860438912
4.096,2.808432644
4.098,2.583072147
4.1,2.340376228
4.102,2.132351154
4.104,2.04567404
4.106,2.149686577
4.108,2.305705382
4.11,2.617742993
4.112,2.808432644
4.114,2.895109758
4.116,2.808432644
4.118,2.583072147
4.12,2.305705382
4.122,2.132351154
4.124,2.063009463
4.126,2.167022
4.128,2.323040805
4.13,2.652413839
4.132,2.773761798
4.134,2.825768067
4.136,2.704420107
4.138,2.496395033
4.14,2.184357422
4.142,2.011003194
4.144,1.92432608
4.146,2.080344885
4.148,2.236363691
4.15,2.531065879
4.152,2.669749261
4.154,2.704420107
4.156,2.548401302
4.158,2.427053342
4.16,2.115015731
4.162,1.958996926
4.164,1.889655234
4.166,2.011003194
4.168,2.201692845
4.17,2.496395033
4.172,2.652413839
4.174,2.687084684
4.176,2.565736724
4.178,2.375047073
4.18,2.080344885
4.182,1.906990657
4.184,1.854984389
4.186,1.993667771
4.188,2.184357422
4.19,2.513730456
4.192,2.652413839
4.194,2.687084684
4.196,2.548401302
4.198,2.375047073
4.2,2.097680308
4.202,1.906990657
4.204,1.872319812
4.206,1.993667771
4.208,2.167022
4.21,2.444388765
4.212,2.565736724
4.214,2.513730456
4.216,2.357711651
4.218,2.184357422
4.22,1.872319812
4.222,1.733636429
4.224,1.750971852
4.226,2.097680308
4.228,2.513730456
4.23,3.068463986
4.232,3.432507866
4.234,3.727210054
4.236,3.848558013
4.238,4.004576819
4.24,3.987241396
4.242,3.935235127
4.244,3.779216322
4.246,3.657868362
4.248,3.39783702
4.25,3.571191248
4.252,3.675203785
4.254,3.345830751
4.256,2.825768067
4.258,2.201692845
4.26,1.438934241
4.262,1.178902899
4.264,1.282915436
4.266,1.490940509
4.268,1.698965583
4.27,2.04567404
4.272,2.149686577
4.274,2.167022
4.276,2.028338617
4.278,1.889655234
4.28,1.716301006
4.282,1.698965583
4.284,1.768307275
4.286,1.993667771
4.288,2.288369959
4.29,2.583072147
4.292,2.704420107
4.294,2.72175553
4.296,2.513730456
4.298,2.323040805
4.3,2.063009463
4.302,1.993667771
4.304,2.028338617
4.306,2.184357422
4.308,2.409717919
4.31,2.704420107
4.312,2.773761798
4.314,2.739090953
4.316,2.565736724
4.318,2.375047073
4.32,2.080344885
4.322,2.011003194
4.324,2.080344885
4.326,2.253699114
4.328,2.496395033
4.33,2.756426375
4.332,2.808432644
4.334,2.773761798
4.336,2.565736724
4.338,2.340376228
4.34,2.115015731
4.342,2.011003194
4.344,2.097680308
4.346,2.253699114
4.348,2.531065879
4.35,2.773761798
4.352,2.860438912
4.354,2.791097221
4.356,2.617742993
4.358,2.357711651
4.36,2.132351154
4.362,2.080344885
4.364,2.149686577
4.366,2.323040805
4.368,2.60040757
4.37,2.808432644
4.372,2.912445181
4.374,2.860438912
4.376,2.652413839
4.378,2.409717919
4.38,2.167022
4.382,2.115015731
4.384,2.201692845
4.386,2.409717919
4.388,2.687084684
4.39,2.895109758
4.392,2.964451449
4.394,2.877774335
4.396,2.704420107
4.398,2.461724188
4.4,2.305705382
4.402,2.236363691
4.404,2.305705382
4.406,2.513730456
4.408,2.808432644
4.41,2.999122295
4.412,3.068463986
4.414,2.981786872
4.416,2.808432644
4.418,2.548401302
4.42,2.340376228
4.422,2.288369959
4.424,2.409717919
4.426,2.635078416
4.428,2.929780604
4.43,3.103134832
4.432,3.189811946
4.434,3.120470255
4.436,2.947116027
4.438,2.687084684
4.44,2.531065879
4.442,2.461724188
4.444,2.617742993
4.446,2.808432644
4.448,3.137805678
4.45,3.311159906
4.452,3.39783702
4.454,3.27648906
4.456,3.120470255
4.458,2.84310349
4.46,2.704420107
4.462,2.687084684
4.464,2.808432644
4.466,3.033793141
4.468,3.363166174
4.47,3.51918498
4.472,3.553855825
4.474,3.432507866
4.476,3.259153637
4.478,2.964451449
4.48,2.791097221
4.482,2.791097221
4.484,2.912445181
4.486,3.085799409
4.488,3.415172443
4.49,3.588526671
4.492,3.571191248
4.494,3.432507866
4.496,3.27648906
4.498,2.947116027
4.5,2.808432644
4.502,2.791097221
4.504,2.895109758
4.506,3.033793141
4.508,3.328495329
4.51,3.39783702
4.512,3.380501597
4.514,3.241818214
4.516,3.016457718
4.518,2.635078416
4.52,2.461724188
4.522,2.392382496
4.524,2.531065879
4.526,2.669749261
4.528,2.912445181
4.53,2.999122295
4.532,2.981786872
4.534,2.825768067
4.536,2.60040757
4.538,2.271034536
4.54,2.115015731
4.542,2.080344885
4.544,2.201692845
4.546,2.375047073
4.548,2.669749261
4.55,2.756426375
4.552,2.756426375
4.554,2.565736724
4.556,2.357711651
4.558,2.04567404
4.56,1.92432608
4.562,1.92432608
4.564,2.063009463
4.566,2.288369959
4.568,2.583072147
4.57,2.652413839
4.572,2.652413839
4.574,2.461724188
4.576,2.271034536
4.578,2.011003194
4.58,1.872319812
4.582,1.872319812
4.584,2.028338617
4.586,2.253699114
4.588,2.565736724
4.59,2.652413839
4.592,2.617742993
4.594,2.427053342
4.596,2.219028268
4.598,1.941661503
4.6,2.219028268
4.602,1.976332349
4.604,1.872319812
4.606,1.958996926
4.608,2.115015731
4.61,2.409717919
4.612,2.617742993
4.614,2.704420107
4.616,2.635078416
4.618,2.461724188
4.62,2.201692845
4.622,1.993667771
4.624,1.92432608
4.626,1.976332349
4.628,2.201692845
4.63,2.461724188
4.632,2.669749261
4.634,2.739090953
4.636,2.669749261
4.638,2.461724188
4.64,2.219028268
4.642,2.028338617
4.644,1.92432608
4.646,2.028338617
4.648,2.201692845
4.65,2.513730456
4.652,2.669749261
4.654,2.739090953
4.656,2.687084684
4.658,2.444388765
4.66,2.201692845
4.662,1.993667771
4.664,1.941661503
4.666,2.04567404
4.668,2.201692845
4.67,2.47905961
4.672,2.687084684
4.674,2.756426375
4.676,2.652413839
4.678,2.461724188
4.68,2.184357422
4.682,1.993667771
4.684,1.958996926
4.686,2.04567404
4.688,2.201692845
4.69,2.548401302
4.692,2.669749261
4.694,2.704420107
4.696,2.60040757
4.698,2.409717919
4.7,2.115015731
4.702,1.958996926
4.704,1.92432608
4.706,2.028338617
4.708,2.184357422
4.71,2.531065879
4.712,2.669749261
4.714,2.704420107
4.716,2.583072147
4.718,2.392382496
4.72,2.115015731
4.722,1.941661503
4.724,1.889655234
4.726,2.011003194
4.728,2.184357422
4.73,2.47905961
4.732,2.652413839
4.734,2.704420107
4.736,2.565736724
4.738,2.392382496
4.74,2.080344885
4.742,1.92432608
4.744,1.889655234
4.746,1.976332349
4.748,2.167022
4.75,2.513730456
4.752,2.635078416
4.754,2.669749261
4.756,2.531065879
4.758,2.340376228
4.76,2.04567404
4.762,1.889655234
4.764,1.872319812
4.766,2.011003194
4.768,2.167022
4.77,2.496395033
4.772,2.617742993
4.774,2.652413839
4.776,2.513730456
4.778,2.323040805
4.78,1.993667771
4.782,1.889655234
4.784,1.854984389
4.786,1.993667771
4.788,2.219028268
4.79,2.496395033
4.792,2.635078416
4.794,2.635078416
4.796,2.47905961
4.798,2.305705382
4.8,1.976332349
4.802,1.854984389
4.804,1.889655234
4.806,2.063009463
4.808,2.253699114
4.81,2.548401302
4.812,2.652413839
4.814,2.652413839
4.816,2.47905961
4.818,2.305705382
4.82,1.958996926
4.822,1.854984389
4.824,1.889655234
4.826,2.063009463
4.828,2.288369959
4.83,2.583072147
4.832,2.652413839
4.834,2.687084684
4.836,2.47905961
4.838,2.271034536
4.84,1.976332349
4.842,1.889655234
4.844,1.906990657
4.846,2.115015731
4.848,2.323040805
4.85,2.60040757
4.852,2.669749261
4.854,2.669749261
4.856,2.496395033
4.858,2.271034536
4.86,1.993667771
4.862,1.889655234
4.864,1.889655234
4.866,2.080344885
4.868,2.340376228
4.87,2.583072147
4.872,2.72175553
4.874,2.652413839
4.876,2.47905961
4.878,2.253699114
4.88,1.993667771
4.882,1.92432608
4.884,1.941661503
4.886,2.167022
4.888,2.375047073
4.89,2.635078416
4.892,2.704420107
4.894,2.652413839
4.896,2.461724188
4.898,2.219028268
4.9,1.993667771
4.902,1.906990657
4.904,1.958996926
4.906,2.184357422
4.908,2.427053342
4.91,2.669749261
4.912,2.739090953
4.914,2.669749261
4.916,2.444388765
4.918,2.219028268
4.92,1.976332349
4.922,1.92432608
4.924,1.993667771
4.926,2.201692845
4.928,2.496395033
4.93,2.704420107
4.932,2.739090953
4.934,2.669749261
4.936,2.461724188
4.938,2.219028268
4.94,2.011003194
4.942,1.92432608
4.944,2.028338617
4.946,2.184357422
4.948,2.513730456
4.95,2.704420107
4.952,2.756426375
4.954,2.687084684
4.956,2.496395033
4.958,2.219028268
4.96,2.04567404
4.962,2.028338617
4.964,2.132351154
4.966,2.340376228
4.968,2.617742993
4.97,2.825768067
4.972,2.860438912
4.974,2.773761798
4.976,2.60040757
4.978,2.305705382
4.98,2.097680308
4.982,2.04567404
4.984,2.184357422
4.986,2.392382496
4.988,2.687084684
4.99,2.84310349
4.992,2.912445181
4.994,2.791097221
4.996,2.617742993
4.998,2.323040805
5,2.132351154
5.002,2.097680308
5.004,2.184357422
5.006,2.340376228
5.008,2.669749261
5.01,2.773761798
5.012,2.791097221
5.014,2.652413839
5.016,2.496395033
5.018,2.184357422
5.02,2.028338617
5.022,1.958996926
5.024,2.063009463
5.026,2.253699114
5.028,2.583072147
5.03,2.72175553
5.032,2.739090953
5.034,2.60040757
5.036,2.409717919
5.038,2.115015731
5.04,1.958996926
5.042,1.958996926
5.044,2.080344885
5.046,2.253699114
5.048,2.60040757
5.05,2.72175553
5.052,2.773761798
5.054,2.635078416
5.056,2.444388765
5.058,2.115015731
5.06,1.958996926
5.062,1.993667771
5.064,2.115015731
5.066,2.288369959
5.068,2.617742993
5.07,2.72175553
5.072,2.739090953
5.074,2.583072147
5.076,2.392382496
5.078,2.115015731
5.08,1.958996926
5.082,1.92432608
5.084,1.993667771
5.086,2.201692845
5.088,2.444388765
5.09,2.565736724
5.092,2.583072147
5.094,2.409717919
5.096,2.340376228
5.098,2.201692845
5.1,2.271034536
5.102,2.565736724
5.104,3.016457718
5.106,3.536520402
5.108,4.125924778
5.11,4.576645772
5.112,4.732664577
5.114,4.645987463
5.116,4.316614429
5.118,3.727210054
5.12,3.172476523
5.122,3.051128563
5.124,3.137805678
5.126,3.051128563
5.128,2.981786872
5.13,2.704420107
5.132,2.271034536
5.134,1.993667771
5.136,1.80297812
5.138,1.577617624
5.14,1.508275932
5.142,1.594953046
5.144,1.785642697
5.146,2.04567404
5.148,2.409717919
5.15,2.548401302
5.152,2.60040757
5.154,2.444388765
5.156,2.305705382
5.158,2.097680308
5.16,1.993667771
5.162,2.04567404
5.164,2.236363691
5.166,2.531065879
5.168,2.773761798
5.17,2.825768067
5.172,2.825768067
5.174,2.635078416
5.176,2.427053342
5.178,2.184357422
5.18,2.097680308
5.182,2.149686577
5.184,2.357711651
5.186,2.60040757
5.188,2.808432644
5.19,2.929780604
5.192,2.877774335
5.194,2.669749261
5.196,2.461724188
5.198,2.201692845
5.2,2.097680308
5.202,2.184357422
5.204,2.375047073
5.206,2.652413839
5.208,2.860438912
5.21,2.964451449
5.212,2.912445181
5.214,2.704420107
5.216,2.444388765
5.218,2.236363691
5.22,2.167022
5.222,2.236363691
5.224,2.427053342
5.226,2.687084684
5.228,2.860438912
5.23,2.964451449
5.232,2.877774335
5.234,2.687084684
5.236,2.444388765
5.238,2.219028268
5.24,2.149686577
5.242,2.236363691
5.244,2.496395033
5.246,2.756426375
5.248,2.981786872
5.25,2.999122295
5.252,2.929780604
5.254,2.72175553
5.256,2.47905961
5.258,2.253699114
5.26,2.236363691
5.262,2.305705382
5.264,2.531065879
5.266,2.808432644
5.268,3.016457718
5.27,3.033793141
5.272,2.947116027
5.274,2.791097221
5.276,2.513730456
5.278,2.340376228
5.28,2.305705382
5.282,2.409717919
5.284,2.617742993
5.286,2.947116027
5.288,3.120470255
5.29,3.172476523
5.292,3.068463986
5.294,2.912445181
5.296,2.617742993
5.298,2.444388765
5.3,2.409717919
5.302,2.548401302
5.304,2.756426375
5.306,3.085799409
5.308,3.224482792
5.31,3.259153637
5.312,3.207147369
5.314,3.051128563
5.316,2.756426375
5.318,2.635078416
5.32,2.583072147
5.322,2.756426375
5.324,2.964451449
5.326,3.27648906
5.328,3.432507866
5.33,3.501849557
5.332,3.432507866
5.334,3.189811946
5.336,2.929780604
5.338,2.808432644
5.34,2.791097221
5.342,2.929780604
5.344,3.137805678
5.346,3.484514134
5.348,3.605862094
5.35,3.605862094
5.352,3.484514134
5.354,3.293824483
5.356,3.033793141
5.358,2.895109758
5.36,2.84310349
5.362,2.999122295
5.364,3.189811946
5.366,3.501849557
5.368,3.623197517
5.37,3.605862094
5.372,3.432507866
5.374,3.224482792
5.376,2.912445181
5.378,2.756426375
5.38,2.739090953
5.382,2.860438912
5.384,3.016457718
5.386,3.293824483
5.388,3.363166174
5.39,3.311159906
5.392,3.103134832
5.394,2.895109758
5.396,2.548401302
5.398,2.375047073
5.4,2.375047073
5.402,2.496395033
5.404,2.635078416
5.406,2.895109758
5.408,3.016457718
5.41,2.981786872
5.412,2.773761798
5.414,2.548401302
5.416,2.236363691
5.418,2.097680308
5.42,2.080344885
5.422,2.253699114
5.424,2.444388765
5.426,2.72175553
5.428,2.825768067
5.43,2.791097221
5.432,2.60040757
5.434,2.357711651
5.436,2.063009463
5.438,1.993667771
5.44,1.976332349
5.442,2.167022
5.444,2.392382496
5.446,2.652413839
5.448,2.739090953
5.45,2.739090953
5.452,2.531065879
5.454,2.305705382
5.456,2.04567404
5.458,1.92432608
5.46,1.958996926
5.462,2.149686577
5.464,2.392382496
5.466,2.635078416
5.468,2.756426375
5.47,2.687084684
5.472,2.461724188
5.474,2.253699114
5.476,2.011003194
5.478,1.906990657
5.48,1.941661503
5.482,2.132351154
5.484,2.427053342
5.486,2.635078416
5.488,2.72175553
5.49,2.652413839
5.492,2.496395033
5.494,2.219028268
5.496,2.028338617
5.498,1.906990657
5.5,2.011003194
5.502,2.201692845
5.504,2.444388765
5.506,2.635078416
5.508,2.72175553
5.51,2.635078416
5.512,2.461724188
5.514,2.201692845
5.516,2.011003194
5.518,1.958996926
5.52,2.028338617
5.522,2.236363691
5.524,2.513730456
5.526,2.687084684
5.528,2.756426375
5.53,2.704420107
5.532,2.496395033
5.534,2.219028268
5.536,1.993667771
5.538,1.941661503
5.54,2.028338617
5.542,2.219028268
5.544,2.548401302
5.546,2.704420107
5.548,2.773761798
5.55,2.687084684
5.552,2.496395033
5.554,2.219028268
5.556,2.028338617
5.558,1.976332349
5.56,2.04567404
5.562,2.271034536
5.564,2.565736724
5.566,2.72175553
5.568,2.756426375
5.57,2.687084684
5.572,2.496395033
5.574,2.201692845
5.576,2.028338617
5.578,1.976332349
5.58,2.080344885
5.582,2.271034536
5.584,2.583072147
5.586,2.72175553
5.588,2.773761798
5.59,2.669749261
5.592,2.47905961
5.594,2.184357422
5.596,2.011003194
5.598,1.993667771
5.6,2.080344885
5.602,2.305705382
5.604,2.583072147
5.606,2.72175553
5.608,2.773761798
5.61,2.687084684
5.612,2.496395033
5.614,2.184357422
5.616,2.011003194
5.618,1.993667771
5.62,2.132351154
5.622,2.288369959
5.624,2.60040757
5.626,2.756426375
5.628,2.791097221
5.63,2.635078416
5.632,2.461724188
5.634,2.167022
5.636,2.028338617
5.638,1.976332349
5.64,2.132351154
5.642,2.253699114
5.644,2.652413839
5.646,2.72175553
5.648,2.756426375
5.65,2.617742993
5.652,2.409717919
5.654,2.115015731
5.656,1.958996926
5.658,1.958996926
5.66,2.115015731
5.662,2.323040805
5.664,2.60040757
5.666,2.756426375
5.668,2.72175553
5.67,2.583072147
5.672,2.375047073
5.674,2.080344885
5.676,1.958996926
5.678,1.941661503
5.68,2.132351154
5.682,2.305705382
5.684,2.617742993
5.686,2.756426375
5.688,2.756426375
5.69,2.583072147
5.692,2.409717919
5.694,2.097680308
5.696,1.976332349
5.698,1.958996926
5.7,2.149686577
5.702,2.305705382
5.704,2.617742993
5.706,2.72175553
5.708,2.704420107
5.71,2.531065879
5.712,2.323040805
5.714,2.028338617
5.716,1.976332349
5.718,1.958996926
5.72,2.132351154
5.722,2.323040805
5.724,2.617742993
5.726,2.687084684
5.728,2.669749261
5.73,2.513730456
5.732,2.253699114
5.734,1.976332349
5.736,1.92432608
5.738,1.976332349
5.74,2.149686577
5.742,2.357711651
5.744,2.652413839
5.746,2.704420107
5.748,2.687084684
5.75,2.513730456
5.752,2.288369959
5.754,2.011003194
5.756,1.906990657
5.758,1.976332349
5.76,2.167022
5.762,2.375047073
5.764,2.652413839
5.766,2.704420107
5.768,2.669749261
5.77,2.444388765
5.772,2.219028268
5.774,1.976332349
5.776,1.872319812
5.778,1.958996926
5.78,2.167022
5.782,2.427053342
5.784,2.635078416
5.786,2.704420107
5.788,2.652413839
5.79,2.444388765
5.792,2.219028268
5.794,1.993667771
5.796,1.906990657
5.798,1.958996926
5.8,2.167022
5.802,2.427053342
5.804,2.635078416
5.806,2.739090953
5.808,2.635078416
5.81,2.496395033
5.812,2.201692845
5.814,2.011003194
5.816,1.906990657
5.818,1.976332349
5.82,2.184357422
5.822,2.47905961
5.824,2.652413839
5.826,2.773761798
5.828,2.687084684
5.83,2.461724188
5.832,2.149686577
5.834,1.941661503
5.836,1.941661503
5.838,1.976332349
5.84,2.167022
5.842,2.461724188
5.844,2.687084684
5.846,2.739090953
5.848,2.617742993
5.85,2.444388765
5.852,2.149686577
5.854,2.011003194
5.856,1.92432608
5.858,2.028338617
5.86,2.219028268
5.862,2.531065879
5.864,2.669749261
5.866,2.739090953
5.868,2.635078416
5.87,2.461724188
5.872,2.167022
5.874,1.993667771
5.876,1.941661503
5.878,2.080344885
5.88,2.253699114
5.882,2.583072147
5.884,2.756426375
5.886,2.791097221
5.888,2.704420107
5.89,2.531065879
5.892,2.219028268
5.894,2.063009463
5.896,2.04567404
5.898,2.184357422
5.9,2.392382496
5.902,2.739090953
5.904,2.825768067
5.906,2.877774335
5.908,2.739090953
5.91,2.565736724
5.912,2.271034536
5.914,2.132351154
5.916,2.080344885
5.918,2.236363691
5.92,2.409717919
5.922,2.72175553
5.924,2.860438912
5.926,2.895109758
5.928,2.739090953
5.93,2.548401302
5.932,2.219028268
5.934,2.097680308
5.936,2.063009463
5.938,2.167022
5.94,2.323040805
5.942,2.652413839
5.944,2.773761798
5.946,2.791097221
5.948,2.635078416
5.95,2.409717919
5.952,2.080344885
5.954,1.958996926
5.956,1.941661503
5.958,2.063009463
5.96,2.271034536
5.962,2.583072147
5.964,2.687084684
5.966,2.687084684
5.968,2.513730456
5.97,2.340376228
5.972,2.028338617
5.974,1.92432608
5.976,1.906990657
5.978,2.04567404
5.98,2.253699114
5.982,2.548401302
5.984,2.704420107
5.986,2.652413839
5.988,2.47905961
5.99,2.305705382
5.992,1.993667771
5.994,1.872319812
5.996,1.889655234
5.998,2.063009463
6,2.236363691
6.002,2.565736724
6.004,2.687084684
6.006,2.669749261
6.008,2.47905961
6.01,2.219028268
6.012,1.889655234
6.014,1.750971852
6.016,1.733636429
6.018,1.92432608
6.02,2.115015731
6.022,2.409717919
6.024,2.617742993
6.026,2.773761798
6.028,2.791097221
6.03,2.860438912
6.032,2.877774335
6.034,3.103134832
6.036,3.415172443
6.038,3.935235127
6.04,4.333949852
6.042,4.62865204
6.044,4.62865204
6.046,4.299279007
6.048,3.640532939
6.05,3.328495329
6.052,2.964451449
6.054,2.531065879
6.056,2.219028268
6.058,1.993667771
6.06,1.872319812
6.062,2.011003194
6.064,2.097680308
6.066,2.115015731
6.068,1.958996926
6.07,1.750971852
6.072,1.525611355
6.074,1.508275932
6.076,1.646959315
6.078,1.92432608
6.08,2.253699114
6.082,2.548401302
6.084,2.652413839
6.086,2.652413839
6.088,2.461724188
6.09,2.236363691
6.092,2.011003194
6.094,1.92432608
6.096,2.011003194
6.098,2.236363691
6.1,2.513730456
6.102,2.687084684
6.104,2.791097221
6.106,2.756426375
6.108,2.531065879
6.11,2.288369959
6.112,2.097680308
6.114,2.011003194
6.116,2.132351154
6.118,2.288369959
6.12,2.548401302
6.122,2.739090953
6.124,2.808432644
6.126,2.739090953
6.128,2.565736724
6.13,2.271034536
6.132,2.080344885
6.134,2.011003194
6.136,2.132351154
6.138,2.357711651
6.14,2.669749261
6.142,2.808432644
6.144,2.877774335
6.146,2.756426375
6.148,2.583072147
6.15,2.323040805
6.152,2.132351154
6.154,2.097680308
6.156,2.184357422
6.158,2.427053342
6.16,2.687084684
6.162,2.877774335
6.164,2.912445181
6.166,2.808432644
6.168,2.635078416
6.17,2.323040805
6.172,2.149686577
6.174,2.080344885
6.176,2.219028268
6.178,2.409717919
6.18,2.756426375
6.182,2.947116027
6.184,2.912445181
6.186,2.825768067
6.188,2.652413839
6.19,2.357711651
6.192,2.184357422
6.194,2.167022
6.196,2.323040805
6.198,2.531065879
6.2,2.825768067
6.202,2.999122295
6.204,2.999122295
6.206,2.895109758
6.208,2.72175553
6.21,2.409717919
6.212,2.253699114
6.214,2.253699114
6.216,2.409717919
6.218,2.60040757
6.22,2.947116027
6.222,3.103134832
6.224,3.085799409
6.226,2.999122295
6.228,2.84310349
6.23,2.548401302
6.232,2.409717919
6.234,2.427053342
6.236,2.565736724
6.238,2.773761798
6.24,3.120470255
6.242,3.27648906
6.244,3.328495329
6.246,3.189811946
6.248,3.016457718
6.25,2.72175553
6.252,2.617742993
6.254,2.617742993
6.256,2.808432644
6.258,3.033793141
6.26,3.345830751
6.262,3.484514134
6.264,3.484514134
6.266,3.345830751
6.268,3.189811946
6.27,2.912445181
6.272,2.791097221
6.274,2.808432644
6.276,2.947116027
6.278,3.207147369
6.28,3.51918498
6.282,3.605862094
6.284,3.605862094
6.286,3.432507866
6.288,3.241818214
6.29,2.929780604
6.292,2.84310349
6.294,2.84310349
6.296,2.999122295
6.298,3.189811946
6.3,3.484514134
6.302,3.553855825
6.304,3.536520402
6.306,3.293824483
6.308,3.068463986
6.31,2.791097221
6.312,2.635078416
6.314,2.617742993
6.316,2.739090953
6.318,2.929780604
6.32,3.207147369
6.322,3.241818214
6.324,3.189811946
6.326,2.947116027
6.328,2.669749261
6.33,2.392382496
6.332,2.253699114
6.334,2.288369959
6.336,2.444388765
6.338,2.652413839
6.34,2.860438912
6.342,2.929780604
6.344,2.895109758
6.346,2.652413839
6.348,2.409717919
6.35,2.132351154
6.352,2.04567404
6.354,2.063009463
6.356,2.253699114
6.358,2.461724188
6.36,2.687084684
6.362,2.773761798
6.364,2.704420107
6.366,2.47905961
6.368,2.253699114
6.37,2.028338617
6.372,1.941661503
6.374,1.976332349
6.376,2.201692845
6.378,2.427053342
6.38,2.652413839
6.382,2.687084684
6.384,2.635078416
6.386,2.461724188
6.388,2.219028268
6.39,1.993667771
6.392,1.92432608
6.394,1.976332349
6.396,2.167022
6.398,2.461724188
6.4,2.635078416
6.402,2.704420107
6.404,2.635078416
6.406,2.47905961
6.408,2.184357422
6.41,1.993667771
6.412,1.906990657
6.414,1.976332349
6.416,2.184357422
6.418,2.444388765
6.42,2.669749261
6.422,2.687084684
6.424,2.635078416
6.426,2.392382496
6.428,2.132351154
6.43,1.941661503
6.432,1.889655234
6.434,1.993667771
6.436,2.149686577
6.438,2.496395033
6.44,2.652413839
6.442,2.72175553
6.444,2.652413839
6.446,2.444388765
6.448,2.132351154
6.45,1.993667771
6.452,1.941661503
6.454,2.04567404
6.456,2.271034536
6.458,2.548401302
6.46,2.704420107
6.462,2.756426375
6.464,2.617742993
6.466,2.461724188
6.468,2.167022
6.47,1.958996926
6.472,1.92432608
6.474,2.063009463
6.476,2.253699114
6.478,2.60040757
6.48,2.756426375
6.482,2.808432644
6.484,2.687084684
6.486,2.461724188
6.488,2.184357422
6.49,2.011003194
6.492,1.958996926
6.494,2.097680308
6.496,2.288369959
6.498,2.617742993
6.5,2.773761798
6.502,2.773761798
6.504,2.669749261
6.506,2.444388765
6.508,2.149686577
6.51,2.028338617
6.512,1.958996926
6.514,2.115015731
6.516,2.288369959
6.518,2.617742993
6.52,2.739090953
6.522,2.773761798
6.524,2.617742993
6.526,2.461724188
6.528,2.115015731
6.53,1.976332349
6.532,1.958996926
6.534,2.097680308
6.536,2.323040805
6.538,2.617742993
6.54,2.72175553
6.542,2.791097221
6.544,2.617742993
6.546,2.409717919
6.548,2.080344885
6.55,1.958996926
6.552,1.941661503
6.554,2.132351154
6.556,2.340376228
6.558,2.635078416
6.56,2.756426375
6.562,2.739090953
6.564,2.583072147
6.566,2.392382496
6.568,2.063009463
6.57,1.976332349
6.572,1.976332349
6.574,2.132351154
6.576,2.340376228
6.578,2.635078416
6.58,2.739090953
6.582,2.739090953
6.584,2.548401302
6.586,2.375047073
6.588,2.063009463
6.59,1.958996926
6.592,1.941661503
6.594,2.167022
6.596,2.375047073
6.598,2.617742993
6.6,2.756426375
6.602,2.72175553
6.604,2.531065879
6.606,2.357711651
6.608,2.04567404
6.61,1.941661503
6.612,1.976332349
6.614,2.149686577
6.616,2.392382496
6.618,2.652413839
6.62,2.72175553
6.622,2.72175553
6.624,2.531065879
6.626,2.305705382
6.628,2.028338617
6.63,1.958996926
6.632,1.993667771
6.634,2.184357422
6.636,2.392382496
6.638,2.687084684
6.64,2.756426375
6.642,2.739090953
6.644,2.513730456
6.646,2.288369959
6.648,2.028338617
6.65,1.976332349
6.652,1.993667771
6.654,2.184357422
6.656,2.444388765
6.658,2.687084684
6.66,2.739090953
6.662,2.72175553
6.664,2.513730456
6.666,2.271034536
6.668,2.028338617
6.67,1.958996926
6.672,2.011003194
6.674,2.184357422
6.676,2.47905961
6.678,2.687084684
6.68,2.756426375
6.682,2.669749261
6.684,2.513730456
6.686,2.201692845
6.688,2.04567404
6.69,1.941661503
6.692,2.04567404
6.694,2.236363691
6.696,2.531065879
6.698,2.704420107
6.7,2.756426375
6.702,2.704420107
6.704,2.461724188
6.706,2.219028268
6.708,2.028338617
6.71,1.976332349
6.712,2.04567404
6.714,2.253699114
6.716,2.565736724
6.718,2.704420107
6.72,2.756426375
6.722,2.652413839
6.724,2.47905961
6.726,2.184357422
6.728,2.04567404
6.73,1.941661503
6.732,2.04567404
6.734,2.236363691
6.736,2.565736724
6.738,2.72175553
6.74,2.756426375
6.742,2.669749261
6.744,2.461724188
6.746,2.201692845
6.748,2.011003194
6.75,1.976332349
6.752,2.097680308
6.754,2.271034536
6.756,2.565736724
6.758,2.739090953
6.76,2.773761798
6.762,2.652413839
6.764,2.444388765
6.766,2.184357422
6.768,1.993667771
6.77,1.976332349
6.772,2.097680308
6.774,2.305705382
6.776,2.60040757
6.778,2.756426375
6.78,2.808432644
6.782,2.669749261
6.784,2.47905961
6.786,2.149686577
6.788,2.011003194
6.79,2.011003194
6.792,2.115015731
6.794,2.323040805
6.796,2.669749261
6.798,2.825768067
6.8,2.84310349
6.802,2.704420107
6.804,2.531065879
6.806,2.253699114
6.808,2.080344885
6.81,2.063009463
6.812,2.236363691
6.814,2.375047073
6.816,2.704420107
6.818,2.84310349
6.82,2.895109758
6.822,2.756426375
6.824,2.565736724
6.826,2.271034536
6.828,2.115015731
6.83,2.115015731
6.832,2.288369959
6.834,2.461724188
6.836,2.773761798
6.838,2.877774335
6.84,2.877774335
6.842,2.687084684
6.844,2.47905961
6.846,2.167022
6.848,2.011003194
6.85,1.993667771
6.852,2.201692845
6.854,2.357711651
6.856,2.652413839
6.858,2.756426375
6.86,2.756426375
6.862,2.583072147
6.864,2.375047073
6.866,2.080344885
6.868,1.976332349
6.87,1.92432608
6.872,2.115015731
6.874,2.323040805
6.876,2.652413839
6.878,2.739090953
6.88,2.704420107
6.882,2.548401302
6.884,2.323040805
6.886,2.04567404
6.888,1.906990657
6.89,1.906990657
6.892,2.115015731
6.894,2.340376228
6.896,2.635078416
6.898,2.72175553
6.9,2.704420107
6.902,2.496395033
6.904,2.305705382
6.906,2.063009463
6.908,1.92432608
6.91,1.958996926
6.912,2.149686577
6.914,2.375047073
6.916,2.60040757
6.918,2.635078416
6.92,2.583072147
6.922,2.375047073
6.924,2.132351154
6.926,1.872319812
6.928,1.750971852
6.93,1.854984389
6.932,2.288369959
6.934,2.687084684
6.936,3.207147369
6.938,3.536520402
6.94,3.796551745
6.942,3.900564282
6.944,4.021912241
6.946,4.039247664
6.948,4.004576819
6.95,3.969905973
6.952,3.900564282
6.954,3.709874631
6.956,3.779216322
6.958,3.761880899
6.96,3.432507866
6.962,2.84310349
6.964,2.184357422
6.966,1.490940509
6.968,1.300250858
6.97,1.404263395
6.972,1.612288469
6.974,1.906990657
6.976,2.167022
6.978,2.236363691
6.98,2.201692845
6.982,2.080344885
6.984,1.889655234
6.986,1.768307275
6.988,1.80297812
6.99,1.889655234
6.992,2.149686577
6.994,2.47905961
6.996,2.687084684
6.998,2.773761798
7,2.704420107
7.002,2.513730456
7.004,2.288369959
7.006,2.080344885
7.008,2.04567404
7.01,2.097680308
7.012,2.323040805
7.014,2.583072147
7.016,2.791097221
7.018,2.84310349
7.02,2.756426375
7.022,2.583072147
7.024,2.305705382
7.026,2.097680308
7.028,2.011003194
7.03,2.132351154
7.032,2.323040805
7.034,2.669749261
7.036,2.825768067
7.038,2.84310349
7.04,2.791097221
7.042,2.60040757
7.044,2.305705382
7.046,2.115015731
7.048,2.097680308
7.05,2.236363691
7.052,2.392382496
7.054,2.704420107
7.056,2.860438912
7.058,2.877774335
7.06,2.808432644
7.062,2.617742993
7.064,2.323040805
7.066,2.184357422
7.068,2.115015731
7.07,2.271034536
7.072,2.461724188
7.074,2.756426375
7.076,2.912445181
7.078,2.981786872
7.08,2.825768067
7.082,2.687084684
7.084,2.375047073
7.086,2.219028268
7.088,2.236363691
7.09,2.340376228
7.092,2.531065879
7.094,2.84310349
7.096,2.981786872
7.098,2.999122295
7.1,2.912445181
7.102,2.704420107
7.104,2.375047073
7.106,2.253699114
7.108,2.236363691
7.11,2.392382496
7.112,2.60040757
7.114,2.929780604
7.116,3.085799409
7.118,3.137805678
7.12,2.999122295
7.122,2.825768067
7.124,2.47905961
7.126,2.357711651
7.128,2.375047073
7.13,2.548401302
7.132,2.756426375
7.134,3.085799409
7.136,3.207147369
7.138,3.241818214
7.14,3.103134832
7.142,2.964451449
7.144,2.652413839
7.146,2.583072147
7.148,2.583072147
7.15,2.808432644
7.152,2.999122295
7.154,3.293824483
7.156,3.432507866
7.158,3.432507866
7.16,3.27648906
7.162,3.137805678
7.164,2.877774335
7.166,2.756426375
7.168,2.825768067
7.17,2.981786872
7.172,3.224482792
7.174,3.51918498
7.176,3.588526671
7.178,3.640532939
7.18,3.484514134
7.182,3.241818214
7.184,2.981786872
7.186,2.877774335
7.188,2.912445181
7.19,3.085799409
7.192,3.293824483
7.194,3.605862094
7.196,3.675203785
7.198,3.640532939
7.2,3.467178711
7.202,3.241818214
7.204,2.964451449
7.206,2.860438912
7.208,2.877774335
7.21,3.068463986
7.212,3.27648906
7.214,3.501849557
7.216,3.553855825
7.218,3.484514134
7.22,3.259153637
7.222,2.981786872
7.224,2.704420107
7.226,2.565736724
7.228,2.565736724
7.23,2.773761798
7.232,2.947116027
7.234,3.120470255
7.236,3.137805678
7.238,3.085799409
7.24,2.825768067
7.242,2.60040757
7.244,2.305705382
7.246,2.236363691
7.248,2.271034536
7.25,2.444388765
7.252,2.687084684
7.254,2.860438912
7.256,2.929780604
7.258,2.877774335
7.26,2.635078416
7.262,2.375047073
7.264,2.132351154
7.266,2.04567404
7.268,2.115015731
7.27,2.323040805
7.272,2.565736724
7.274,2.791097221
7.276,2.84310349
7.278,2.739090953
7.28,2.548401302
7.282,2.288369959
7.284,2.097680308
7.286,1.976332349
7.288,2.063009463
7.29,2.271034536
7.292,2.531065879
7.294,2.687084684
7.296,2.791097221
7.298,2.687084684
7.3,2.47905961
7.302,2.236363691
7.304,2.04567404
7.306,1.976332349
7.308,2.063009463
7.31,2.271034536
7.312,2.583072147
7.314,2.756426375
7.316,2.773761798
7.318,2.704420107
7.32,2.496395033
7.322,2.201692845
7.324,2.04567404
7.326,2.011003194
7.328,2.115015731
7.33,2.288369959
7.332,2.60040757
7.334,2.739090953
7.336,2.756426375
7.338,2.669749261
7.34,2.513730456
7.342,2.219028268
7.344,1.993667771
7.346,1.993667771
7.348,2.115015731
7.35,2.305705382
7.352,2.60040757
7.354,2.773761798
7.356,2.808432644
7.358,2.704420107
7.36,2.531065879
7.362,2.201692845
7.364,2.04567404
7.366,1.993667771
7.368,2.184357422
7.37,2.375047073
7.372,2.652413839
7.374,2.808432644
7.376,2.825768067
7.378,2.72175553
7.38,2.565736724
7.382,2.219028268
7.384,2.097680308
7.386,2.063009463
7.388,2.184357422
7.39,2.375047073
7.392,2.669749261
7.394,2.84310349
7.396,2.84310349
7.398,2.72175553
7.4,2.548401302
7.402,2.219028268
7.404,2.097680308
7.406,2.063009463
7.408,2.219028268
7.41,2.392382496
7.412,2.756426375
7.414,2.877774335
7.416,2.860438912
7.418,2.704420107
7.42,2.513730456
7.422,2.219028268
7.424,2.080344885
7.426,2.028338617
7.428,2.201692845
7.43,2.409717919
7.432,2.739090953
7.434,2.860438912
7.436,2.825768067
7.438,2.72175553
7.44,2.513730456
7.442,2.201692845
7.444,2.063009463
7.446,2.080344885
7.448,2.236363691
7.45,2.461724188
7.452,2.739090953
7.454,2.877774335
7.456,2.791097221
7.458,2.669749261
7.46,2.444388765
7.462,2.132351154
7.464,2.028338617
7.466,2.063009463
7.468,2.236363691
7.47,2.47905961
7.472,2.72175553
7.474,2.825768067
7.476,2.84310349
7.478,2.635078416
7.48,2.444388765
7.482,2.115015731
7.484,2.028338617
7.486,2.04567404
7.488,2.201692845
7.49,2.461724188
7.492,2.704420107
7.494,2.808432644
7.496,2.773761798
7.498,2.583072147
7.5,2.375047073
7.502,2.080344885
7.504,1.941661503
7.506,2.011003194
7.508,2.236363691
7.51,2.496395033
7.512,2.72175553
7.514,2.808432644
7.516,2.756426375
7.518,2.583072147
7.52,2.357711651
7.522,2.115015731
7.524,2.04567404
7.526,2.063009463
7.528,2.253699114
7.53,2.47905961
7.532,2.72175553
7.534,2.791097221
7.536,2.773761798
7.538,2.565736724
7.54,2.323040805
7.542,2.097680308
7.544,1.993667771
7.546,2.04567404
7.548,2.288369959
7.55,2.513730456
7.552,2.72175553
7.554,2.808432644
7.556,2.739090953
7.558,2.548401302
7.56,2.271034536
7.562,2.04567404
7.564,1.993667771
7.566,2.080344885
7.568,2.271034536
7.57,2.548401302
7.572,2.72175553
7.574,2.791097221
7.576,2.72175553
7.578,2.513730456
7.58,2.253699114
7.582,2.04567404
7.584,1.993667771
7.586,2.097680308
7.588,2.305705382
7.59,2.548401302
7.592,2.756426375
7.594,2.808432644
7.596,2.72175553
7.598,2.531065879
7.6,2.253699114
7.602,2.080344885
7.604,2.011003194
7.606,2.115015731
7.608,2.323040805
7.61,2.617742993
7.612,2.773761798
7.614,2.825768067
7.616,2.739090953
7.618,2.565736724
7.62,2.253699114
7.622,2.04567404
7.624,2.011003194
7.626,2.115015731
7.628,2.288369959
7.63,2.652413839
7.632,2.773761798
7.634,2.825768067
7.636,2.72175553
7.638,2.496395033
7.64,2.201692845
7.642,2.063009463
7.644,2.028338617
7.646,2.149686577
7.648,2.357711651
7.65,2.652413839
7.652,2.808432644
7.654,2.825768067
7.656,2.72175553
7.658,2.531065879
7.66,2.201692845
7.662,2.063009463
7.664,2.011003194
7.666,2.149686577
7.668,2.340376228
7.67,2.669749261
7.672,2.825768067
7.674,2.877774335
7.676,2.739090953
7.678,2.548401302
7.68,2.253699114
7.682,2.115015731
7.684,2.097680308
7.686,2.253699114
7.688,2.444388765
7.69,2.773761798
7.692,2.929780604
7.694,2.912445181
7.696,2.756426375
7.698,2.617742993
7.7,2.271034536
7.702,2.149686577
7.704,2.097680308
7.706,2.271034536
7.708,2.513730456
7.71,2.791097221
7.712,2.895109758
7.714,2.929780604
7.716,2.773761798
7.718,2.60040757
7.72,2.305705382
7.722,2.184357422
7.724,2.167022
7.726,2.305705382
7.728,2.47905961
7.73,2.756426375
7.732,2.860438912
7.734,2.877774335
7.736,2.669749261
7.738,2.496395033
7.74,2.184357422
7.742,2.04567404
7.744,2.04567404
7.746,2.219028268
7.748,2.392382496
7.75,2.687084684
7.752,2.791097221
7.754,2.791097221
7.756,2.635078416
7.758,2.409717919
7.76,2.115015731
7.762,2.011003194
7.764,2.011003194
7.766,2.201692845
7.768,2.409717919
7.77,2.687084684
7.772,2.808432644
7.774,2.791097221
7.776,2.60040757
7.778,2.392382496
7.78,2.097680308
7.782,2.011003194
7.784,2.028338617
7.786,2.236363691
7.788,2.444388765
7.79,2.739090953
7.792,2.825768067
7.794,2.791097221
7.796,2.583072147
7.798,2.340376228
7.8,2.063009463
7.802,1.976332349
7.804,1.976332349
7.806,2.167022
7.808,2.357711651
7.81,2.60040757
7.812,2.652413839
7.814,2.617742993
7.816,2.375047073
7.818,2.201692845
7.82,2.115015731
7.822,2.236363691
7.824,2.60040757
7.826,3.051128563
7.828,3.553855825
7.83,4.07391851
7.832,4.472633235
7.834,4.715329154
7.836,4.559310349
7.838,4.19526647
7.84,3.675203785
7.842,3.189811946
7.844,3.033793141
7.846,3.172476523
7.848,3.189811946
7.85,3.051128563
7.852,2.704420107
7.854,2.149686577
7.856,1.768307275
7.858,1.594953046
7.86,1.438934241
7.862,1.404263395
7.864,1.508275932
7.866,1.681630161
7.868,1.941661503
7.87,2.184357422
7.872,2.392382496
7.874,2.392382496
7.876,2.288369959
7.878,2.097680308
7.88,1.958996926
7.882,1.92432608
7.884,2.063009463
7.886,2.288369959
7.888,2.60040757
7.89,2.773761798
7.892,2.825768067
7.894,2.756426375
7.896,2.583072147
7.898,2.323040805
7.9,2.132351154
7.902,2.080344885
7.904,2.219028268
7.906,2.427053342
7.908,2.704420107
7.91,2.895109758
7.912,2.947116027
7.914,2.860438912
7.916,2.635078416
7.918,2.375047073
7.92,2.184357422
7.922,2.149686577
7.924,2.219028268
7.926,2.427053342
7.928,2.791097221
7.93,2.912445181
7.932,2.947116027
7.934,2.84310349
7.936,2.687084684
7.938,2.375047073
7.94,2.201692845
7.942,2.201692845
7.944,2.305705382
7.946,2.47905961
7.948,2.791097221
7.95,2.947116027
7.952,2.981786872
7.954,2.860438912
7.956,2.669749261
7.958,2.357711651
7.96,2.236363691
7.962,2.219028268
7.964,2.392382496
7.966,2.565736724
7.968,2.877774335
7.97,3.033793141
7.972,3.051128563
7.974,2.947116027
7.976,2.773761798
7.978,2.461724188
7.98,2.323040805
7.982,2.323040805
7.984,2.461724188
7.986,2.635078416
7.988,2.964451449
7.99,3.085799409
7.992,3.120470255
7.994,3.016457718
7.996,2.825768067
7.998,2.513730456
8,2.392382496
8.002,2.409717919
8.004,2.565736724
8.006,2.773761798
8.008,3.068463986
8.01,3.207147369
8.012,3.241818214
8.014,3.085799409
8.016,2.895109758
8.018,2.617742993
8.02,2.47905961
8.022,2.513730456
8.024,2.669749261
8.026,2.877774335
8.028,3.207147369
8.03,3.328495329
8.032,3.363166174
8.034,3.207147369
8.036,3.051128563
8.038,2.773761798
8.04,2.652413839
8.042,2.669749261
8.044,2.895109758
8.046,3.120470255
8.048,3.415172443
8.05,3.536520402
8.052,3.588526671
8.054,3.380501597
8.056,3.224482792
8.058,2.999122295
8.06,2.895109758
8.062,2.947116027
8.064,3.137805678
8.066,3.328495329
8.068,3.640532939
8.07,3.727210054
8.072,3.727210054
8.074,3.571191248
8.076,3.328495329
8.078,3.085799409
8.08,2.964451449
8.082,2.999122295
8.084,3.172476523
8.086,3.39783702
8.088,3.640532939
8.09,3.744545476
8.092,3.675203785
8.094,3.501849557
8.096,3.27648906
8.098,2.964451449
8.1,2.860438912
8.102,2.860438912
8.104,3.016457718
8.106,3.207147369
8.108,3.432507866
8.11,3.467178711
8.112,3.380501597
8.114,3.137805678
8.116,2.860438912
8.118,2.565736724
8.12,2.461724188
8.122,2.47905961
8.124,2.652413839
8.126,2.877774335
8.128,3.033793141
8.13,3.051128563
8.132,2.999122295
8.134,2.773761798
8.136,2.47905961
8.138,2.271034536
8.14,2.184357422
8.142,2.201692845
8.144,2.375047073
8.146,2.60040757
8.148,2.808432644
8.15,2.84310349
8.152,2.756426375
8.154,2.548401302
8.156,2.288369959
8.158,2.063009463
8.16,2.011003194
8.162,2.115015731
8.164,2.288369959
8.166,2.548401302
8.168,2.739090953
8.17,2.791097221
8.172,2.72175553
8.174,2.531065879
8.176,2.219028268
8.178,2.04567404
8.18,1.976332349
8.182,2.04567404
8.184,2.236363691
8.186,2.496395033
8.188,2.687084684
8.19,2.739090953
8.192,2.704420107
8.194,2.496395033
8.196,2.219028268
8.198,2.011003194
8.2,1.958996926
8.202,2.063009463
8.204,2.271034536
8.206,2.531065879
8.208,2.72175553
8.21,2.773761798
8.212,2.652413839
8.214,2.496395033
8.216,2.184357422
8.218,2.028338617
8.22,1.993667771
8.222,2.097680308
8.224,2.288369959
8.226,2.565736724
8.228,2.756426375
8.23,2.791097221
8.232,2.72175553
8.234,2.496395033
8.236,2.201692845
8.238,2.063009463
8.24,2.028338617
8.242,2.149686577
8.244,2.323040805
8.246,2.652413839
8.248,2.791097221
8.25,2.808432644
8.252,2.669749261
8.254,2.531065879
8.256,2.201692845
8.258,2.063009463
8.26,2.04567404
8.262,2.201692845
8.264,2.375047073
8.266,2.687084684
8.268,2.808432644
8.27,2.84310349
8.272,2.704420107
8.274,2.531065879
8.276,2.271034536
8.278,2.097680308
8.28,2.063009463
8.282,2.219028268
8.284,2.409717919
8.286,2.704420107
8.288,2.860438912
8.29,2.877774335
8.292,2.72175553
8.294,2.583072147
8.296,2.253699114
8.298,2.115015731
8.3,2.080344885
8.302,2.219028268
8.304,2.392382496
8.306,2.704420107
8.308,2.791097221
8.31,2.791097221
8.312,2.687084684
8.314,2.444388765
8.316,2.201692845
8.318,2.063009463
8.32,2.04567404
8.322,2.219028268
8.324,2.427053342
8.326,2.739090953
8.328,2.84310349
8.33,2.877774335
8.332,2.72175553
8.334,2.461724188
8.336,2.219028268
8.338,2.080344885
8.34,2.115015731
8.342,2.271034536
8.344,2.461724188
8.346,2.739090953
8.348,2.84310349
8.35,2.860438912
8.352,2.652413839
8.354,2.409717919
8.356,2.184357422
8.358,2.028338617
8.36,2.04567404
8.362,2.219028268
8.364,2.444388765
8.366,2.687084684
8.368,2.773761798
8.37,2.756426375
8.372,2.565736724
8.374,2.375047073
8.376,2.097680308
8.378,1.993667771
8.38,2.04567404
8.382,2.236363691
8.384,2.461724188
8.386,2.704420107
8.388,2.791097221
8.39,2.756426375
8.392,2.565736724
8.394,2.375047073
8.396,2.097680308
8.398,2.028338617
8.4,2.080344885
8.402,2.271034536
8.404,2.496395033
8.406,2.739090953
8.408,2.860438912
8.41,2.84310349
8.412,2.687084684
8.414,2.392382496
8.416,2.132351154
8.418,1.993667771
8.42,2.097680308
8.422,2.305705382
8.424,2.583072147
8.426,2.825768067
8.428,2.929780604
8.43,2.84310349
8.432,2.635078416
8.434,2.323040805
8.436,2.080344885
8.438,2.04567404
8.44,2.115015731
8.442,2.305705382
8.444,2.565736724
8.446,2.72175553
8.448,2.756426375
8.45,2.669749261
8.452,2.461724188
8.454,2.184357422
8.456,2.04567404
8.458,2.04567404
8.46,2.149686577
8.462,2.340376228
8.464,2.617742993
8.466,2.773761798
8.468,2.808432644
8.47,2.756426375
8.472,2.513730456
8.474,2.253699114
8.476,2.011003194
8.478,1.976332349
8.48,2.167022
8.482,2.340376228
8.484,2.635078416
8.486,2.773761798
8.488,2.825768067
8.49,2.72175553
8.492,2.565736724
8.494,2.253699114
8.496,2.097680308
8.498,2.063009463
8.5,2.149686577
8.502,2.288369959
8.504,2.565736724
8.506,2.687084684
8.508,2.791097221
8.51,2.791097221
8.512,2.565736724
8.514,2.201692845
8.516,1.976332349
8.518,1.976332349
8.52,2.04567404
8.522,2.305705382
8.524,2.60040757
8.526,2.756426375
8.528,2.825768067
8.53,2.739090953
8.532,2.652413839
8.534,2.409717919
8.536,2.201692845
8.538,1.958996926
8.54,2.097680308
8.542,2.305705382
8.544,2.635078416
8.546,2.756426375
8.548,2.825768067
8.55,2.652413839
8.552,2.461724188
8.554,2.219028268
8.556,2.115015731
8.558,2.063009463
8.56,2.323040805
8.562,2.548401302
8.564,2.981786872
8.566,2.981786872
8.568,3.033793141
8.57,2.912445181
8.572,2.583072147
8.574,2.219028268
8.576,2.080344885
8.578,2.097680308
8.58,2.340376228
8.582,2.427053342
8.584,2.704420107
8.586,2.860438912
8.588,2.912445181
8.59,2.669749261
8.592,2.392382496
8.594,2.011003194
8.596,1.854984389
8.598,2.04567404
8.6,2.427053342
8.602,2.60040757
8.604,2.947116027
8.606,2.895109758
8.608,2.756426375
8.61,2.427053342
8.612,2.201692845
8.614,1.820313543
8.616,1.906990657
8.618,2.167022
8.62,2.271034536
8.622,2.357711651
8.624,2.496395033
8.626,2.669749261
8.628,2.912445181
8.63,2.669749261
8.632,2.427053342
8.634,2.167022
8.636,2.028338617
8.638,2.028338617
8.64,2.184357422
8.642,2.409717919
8.644,2.739090953
8.646,2.825768067
8.648,2.756426375
8.65,2.548401302
8.652,2.288369959
8.654,2.097680308
8.656,2.011003194
8.658,2.063009463
8.66,2.149686577
8.662,2.375047073
8.664,2.635078416
8.666,2.791097221
8.668,2.652413839
8.67,2.444388765
8.672,2.253699114
8.674,2.011003194
8.676,1.958996926
8.678,1.92432608
8.68,2.149686577
8.682,2.357711651
8.684,2.617742993
8.686,2.617742993
8.688,2.47905961
8.69,2.288369959
8.692,2.011003194
8.694,1.854984389
8.696,1.698965583
8.698,1.768307275
8.7,2.149686577
8.702,2.652413839
8.704,3.137805678
8.706,3.484514134
8.708,3.692539208
8.71,3.83122259
8.712,3.83122259
8.714,3.865893436
8.716,4.004576819
8.718,4.056583087
8.72,4.039247664
8.722,3.883228859
8.724,3.83122259
8.726,3.796551745
8.728,3.536520402
8.73,2.84310349
8.732,2.288369959
8.734,1.646959315
8.736,1.317586281
8.738,1.352257127
8.74,1.542946778
8.742,1.80297812
8.744,2.063009463
8.746,2.149686577
8.748,2.201692845
8.75,2.097680308
8.752,1.785642697
8.754,1.80297812
8.756,1.733636429
8.758,1.768307275
8.76,2.04567404
8.762,2.375047073
8.764,2.687084684
8.766,2.72175553
8.768,2.669749261
8.77,2.461724188
8.772,2.149686577
8.774,1.872319812
8.776,1.92432608
8.778,2.011003194
8.78,2.184357422
8.782,2.496395033
8.784,2.687084684
8.786,2.773761798
8.788,2.791097221
8.79,2.548401302
8.792,2.201692845
8.794,2.028338617
8.796,1.976332349
8.798,2.097680308
8.8,2.375047073
8.802,2.635078416
8.804,2.72175553
8.806,2.860438912
8.808,2.739090953
8.81,2.565736724
8.812,2.167022
8.814,1.976332349
8.816,1.941661503
8.818,2.04567404
8.82,2.253699114
8.822,2.617742993
8.824,2.791097221
8.826,2.895109758
8.828,2.791097221
8.83,2.617742993
8.832,2.236363691
8.834,2.149686577
8.836,2.080344885
8.838,2.236363691
8.84,2.461724188
8.842,2.72175553
8.844,2.773761798
8.846,2.84310349
8.848,2.825768067
8.85,2.583072147
8.852,2.357711651
8.854,2.201692845
8.856,2.149686577
8.858,2.236363691
8.86,2.375047073
8.862,2.756426375
8.864,2.895109758
8.866,2.912445181
8.868,2.791097221
8.87,2.652413839
8.872,2.323040805
8.874,2.253699114
8.876,2.219028268
8.878,2.444388765
8.88,2.60040757
8.882,2.947116027
8.884,3.068463986
8.886,3.033793141
8.888,2.929780604
8.89,2.704420107
8.892,2.461724188
8.894,2.323040805
8.896,2.323040805
8.898,2.583072147
8.9,2.773761798
8.902,3.068463986
8.904,3.172476523
8.906,3.137805678
8.908,2.947116027
8.91,2.825768067
8.912,2.617742993
8.914,2.496395033
8.916,2.531065879
8.918,2.704420107
8.92,2.929780604
8.922,3.241818214
8.924,3.311159906
8.926,3.328495329
8.928,3.207147369
8.93,3.068463986
8.932,2.808432644
8.934,2.669749261
8.936,2.773761798
8.938,2.929780604
8.94,3.172476523
8.942,3.484514134
8.944,3.605862094
8.946,3.553855825
8.948,3.363166174
8.95,3.189811946
8.952,2.860438912
8.954,2.84310349
8.956,2.860438912
8.958,3.085799409
8.96,3.293824483
8.962,3.553855825
8.964,3.640532939
8.966,3.605862094
8.968,3.39783702
8.97,3.137805678
8.972,2.877774335
8.974,2.825768067
8.976,2.877774335
8.978,2.999122295
8.98,3.224482792
8.982,3.467178711
8.984,3.501849557
8.986,3.415172443
8.988,3.224482792
8.99,2.929780604
8.992,2.652413839
8.994,2.513730456
8.996,2.496395033
8.998,2.669749261
9,2.912445181